-8.260000000000000198e-04
-8.809999999999999472e-04
-9.280000000000000054e-04
-9.150000000000000147e-04
-8.700000000000000051e-04
-8.589999999999999546e-04
-9.020000000000000240e-04
-9.420000000000000205e-04
-9.210000000000000521e-04
-8.710000000000000294e-04
-8.660000000000000163e-04
-9.100000000000000016e-04
-9.409999999999999962e-04
-9.129999999999999661e-04
-8.639999999999999677e-04
-8.589999999999999546e-04
-9.020000000000000240e-04
-9.409999999999999962e-04
-9.169999999999999549e-04
-8.630000000000000518e-04
-8.499999999999999526e-04
-8.930000000000000221e-04
-9.319999999999999942e-04
-9.139999999999999904e-04
-8.620000000000000275e-04
-8.499999999999999526e-04
-8.940000000000000464e-04
-9.269999999999999811e-04
-9.110000000000000259e-04
-8.610000000000000032e-04
-8.450000000000000479e-04
-8.840000000000000201e-04
-9.169999999999999549e-04
-9.009999999999999997e-04
-8.570000000000000144e-04
-8.540000000000000499e-04
-8.909999999999999734e-04
-9.300000000000000541e-04
-9.100000000000000016e-04
-8.679999999999999565e-04
-8.580000000000000387e-04
-8.959999999999999866e-04
-9.280000000000000054e-04
-9.060000000000000128e-04
-8.549999999999999658e-04
-8.480000000000000124e-04
-9.020000000000000240e-04
-9.420000000000000205e-04
-9.250000000000000409e-04
-8.760000000000000425e-04
-8.599999999999999789e-04
-9.060000000000000128e-04
-9.449999999999999850e-04
-9.280000000000000054e-04
-8.750000000000000182e-04
-8.660000000000000163e-04
-9.089999999999999773e-04
-9.479999999999999495e-04
-9.319999999999999942e-04
-8.869999999999999846e-04
-8.729999999999999696e-04
-9.110000000000000259e-04
-9.430000000000000448e-04
-9.280000000000000054e-04
-8.800000000000000313e-04
-8.760000000000000425e-04
-9.120000000000000502e-04
-9.430000000000000448e-04
-9.120000000000000502e-04
-8.499999999999999526e-04
-8.319999999999999488e-04
-8.620000000000000275e-04
-8.819999999999999715e-04
-8.570000000000000144e-04
-8.189999999999999581e-04
-8.109999999999999805e-04
-8.369999999999999619e-04
-8.499999999999999526e-04
-8.109999999999999805e-04
-7.560000000000000530e-04
-7.470000000000000511e-04
-7.969999999999999654e-04
-8.480000000000000124e-04
-8.319999999999999488e-04
-7.929999999999999766e-04
-7.969999999999999654e-04
-8.549999999999999658e-04
-8.980000000000000352e-04
-8.859999999999999603e-04
-8.540000000000000499e-04
-8.559999999999999901e-04
-9.089999999999999773e-04
-9.560000000000000355e-04
-9.420000000000000205e-04
-8.940000000000000464e-04
-8.800000000000000313e-04
-9.179999999999999792e-04
-9.560000000000000355e-04
-9.370000000000000074e-04
-8.890000000000000333e-04
-8.790000000000000070e-04
-9.200000000000000278e-04
-9.590000000000000000e-04
-9.430000000000000448e-04
-8.909999999999999734e-04
-8.829999999999999958e-04
-9.229999999999999923e-04
-9.409999999999999962e-04
-9.129999999999999661e-04
-9.039999999999999642e-04
-9.280000000000000054e-04
-9.890000000000000787e-04
-1.013000000000000012e-03
-8.729999999999999696e-04
-5.689999999999999529e-04
-2.030000000000000012e-04
-6.099999999999999872e-05
4.699999999999999724e-05
1.969999999999999909e-04
1.759999999999999954e-04
-7.899999999999999579e-05
-3.829999999999999854e-04
-6.400000000000000524e-04
-8.220000000000000310e-04
-8.769999999999999584e-04
-8.639999999999999677e-04
-8.739999999999999939e-04
-8.869999999999999846e-04
-8.570000000000000144e-04
-8.189999999999999581e-04
-8.120000000000000048e-04
-8.540000000000000499e-04
-8.899999999999999491e-04
-8.720000000000000537e-04
-8.189999999999999581e-04
-8.059999999999999673e-04
-8.469999999999999881e-04
-8.829999999999999958e-04
-8.679999999999999565e-04
-8.170000000000000179e-04
-8.000000000000000383e-04
-8.369999999999999619e-04
-8.769999999999999584e-04
-8.559999999999999901e-04
-8.030000000000000028e-04
-7.870000000000000476e-04
-8.239999999999999712e-04
-8.599999999999999789e-04
-8.400000000000000348e-04
-7.889999999999999878e-04
-7.780000000000000457e-04
-8.099999999999999561e-04
-8.440000000000000236e-04
-8.210000000000000067e-04
-7.680000000000000195e-04
-7.489999999999999913e-04
-7.839999999999999747e-04
-8.170000000000000179e-04
-7.900000000000000121e-04
-7.429999999999999539e-04
-7.230000000000000098e-04
-7.600000000000000418e-04
-7.960000000000000495e-04
-7.709999999999999840e-04
-7.150000000000000322e-04
-6.949999999999999798e-04
-7.330000000000000361e-04
-7.619999999999999820e-04
-7.309999999999999875e-04
-6.780000000000000002e-04
-6.620000000000000450e-04
-6.989999999999999686e-04
-7.320000000000000118e-04
-7.069999999999999462e-04
-6.530000000000000431e-04
-6.350000000000000392e-04
-6.719999999999999628e-04
-7.079999999999999705e-04
-6.880000000000000265e-04
-6.340000000000000149e-04
-6.149999999999999868e-04
-6.560000000000000076e-04
-7.029999999999999574e-04
-7.060000000000000303e-04
-6.639999999999999852e-04
-6.650000000000000095e-04
-7.269999999999999987e-04
-7.860000000000000233e-04
-7.870000000000000476e-04
-7.590000000000000175e-04
-7.619999999999999820e-04
-8.170000000000000179e-04
-8.700000000000000051e-04
-8.660000000000000163e-04
-8.239999999999999712e-04
-8.149999999999999693e-04
-8.599999999999999789e-04
-9.049999999999999885e-04
-8.959999999999999866e-04
-8.480000000000000124e-04
-8.360000000000000460e-04
-8.809999999999999472e-04
-9.259999999999999568e-04
-9.049999999999999885e-04
-8.480000000000000124e-04
-8.350000000000000217e-04
-8.800000000000000313e-04
-9.210000000000000521e-04
-9.039999999999999642e-04
-8.549999999999999658e-04
-8.390000000000000105e-04
-8.769999999999999584e-04
-9.129999999999999661e-04
-8.970000000000000109e-04
-8.509999999999999769e-04
-8.369999999999999619e-04
-8.750000000000000182e-04
-9.100000000000000016e-04
-8.959999999999999866e-04
-8.509999999999999769e-04
-8.300000000000000086e-04
-8.679999999999999565e-04
-9.100000000000000016e-04
-8.919999999999999978e-04
-8.429999999999999993e-04
-8.270000000000000441e-04
-8.670000000000000406e-04
-9.030000000000000483e-04
-8.940000000000000464e-04
-8.459999999999999638e-04
-8.319999999999999488e-04
-8.700000000000000051e-04
-9.060000000000000128e-04
-8.930000000000000221e-04
-8.530000000000000256e-04
-8.390000000000000105e-04
-8.829999999999999958e-04
-9.290000000000000297e-04
-9.060000000000000128e-04
-8.570000000000000144e-04
-8.429999999999999993e-04
-8.850000000000000444e-04
-9.269999999999999811e-04
-9.129999999999999661e-04
-8.610000000000000032e-04
-8.459999999999999638e-04
-8.850000000000000444e-04
-9.229999999999999923e-04
-9.150000000000000147e-04
-8.679999999999999565e-04
-8.509999999999999769e-04
-8.919999999999999978e-04
-9.309999999999999699e-04
-9.169999999999999549e-04
-8.710000000000000294e-04
-8.610000000000000032e-04
-8.940000000000000464e-04
-9.129999999999999661e-04
-8.850000000000000444e-04
-8.210000000000000067e-04
-7.900000000000000121e-04
-8.180000000000000422e-04
-8.679999999999999565e-04
-8.610000000000000032e-04
-7.979999999999999897e-04
-7.579999999999999932e-04
-7.739999999999999485e-04
-8.000000000000000383e-04
-7.929999999999999766e-04
-7.529999999999999801e-04
-7.460000000000000268e-04
-8.019999999999999785e-04
-8.549999999999999658e-04
-8.540000000000000499e-04
-8.199999999999999824e-04
-8.080000000000000160e-04
-8.580000000000000387e-04
-9.120000000000000502e-04
-9.169999999999999549e-04
-8.739999999999999939e-04
-8.580000000000000387e-04
-9.060000000000000128e-04
-9.499999999999999981e-04
-9.340000000000000429e-04
-8.909999999999999734e-04
-8.769999999999999584e-04
-9.160000000000000390e-04
-9.569999999999999514e-04
-9.460000000000000093e-04
-8.949999999999999623e-04
-8.779999999999999827e-04
-9.179999999999999792e-04
-9.569999999999999514e-04
-9.449999999999999850e-04
-8.989999999999999511e-04
-8.779999999999999827e-04
-9.030000000000000483e-04
-9.409999999999999962e-04
-9.629999999999999888e-04
-9.470000000000000336e-04
-9.470000000000000336e-04
-9.560000000000000355e-04
-8.710000000000000294e-04
-5.850000000000000165e-04
-1.840000000000000001e-04
2.599999999999999840e-05
1.569999999999999944e-04
2.689999999999999791e-04
1.589999999999999888e-04
-9.600000000000000243e-05
-3.669999999999999760e-04
-6.599999999999999964e-04
-8.580000000000000387e-04
-8.989999999999999511e-04
-8.369999999999999619e-04
-7.990000000000000140e-04
-8.279999999999999600e-04
-8.760000000000000425e-04
-8.689999999999999808e-04
-8.289999999999999843e-04
-8.140000000000000534e-04
-8.559999999999999901e-04
-8.980000000000000352e-04
-8.809999999999999472e-04
-8.319999999999999488e-04
-8.120000000000000048e-04
-8.520000000000000013e-04
-8.880000000000000089e-04
-8.750000000000000182e-04
-8.199999999999999824e-04
-7.979999999999999897e-04
-8.360000000000000460e-04
-8.750000000000000182e-04
-8.620000000000000275e-04
-8.130000000000000291e-04
-7.889999999999999878e-04
-8.239999999999999712e-04
-8.620000000000000275e-04
-8.480000000000000124e-04
-8.000000000000000383e-04
-7.780000000000000457e-04
-8.130000000000000291e-04
-8.450000000000000479e-04
-8.260000000000000198e-04
-7.749999999999999728e-04
-7.529999999999999801e-04
-7.879999999999999635e-04
-8.210000000000000067e-04
-8.019999999999999785e-04
-7.479999999999999670e-04
-7.259999999999999743e-04
-7.640000000000000306e-04
-7.969999999999999654e-04
-7.770000000000000214e-04
-7.240000000000000342e-04
-6.970000000000000284e-04
-7.299999999999999632e-04
-7.630000000000000063e-04
-7.479999999999999670e-04
-6.880000000000000265e-04
-6.650000000000000095e-04
-6.980000000000000527e-04
-7.349999999999999763e-04
-7.150000000000000322e-04
-6.650000000000000095e-04
-6.499999999999999702e-04
-6.840000000000000377e-04
-7.209999999999999612e-04
-7.069999999999999462e-04
-6.589999999999999721e-04
-6.400000000000000524e-04
-6.890000000000000508e-04
-7.450000000000000025e-04
-7.510000000000000399e-04
-7.209999999999999612e-04
-7.219999999999999855e-04
-7.829999999999999504e-04
-8.409999999999999507e-04
-8.429999999999999993e-04
-8.130000000000000291e-04
-8.099999999999999561e-04
-8.589999999999999546e-04
-9.110000000000000259e-04
-9.089999999999999773e-04
-8.700000000000000051e-04
-8.570000000000000144e-04
-8.989999999999999511e-04
-9.439999999999999607e-04
-9.349999999999999587e-04
-8.890000000000000333e-04
-8.710000000000000294e-04
-9.110000000000000259e-04
-9.529999999999999626e-04
-9.430000000000000448e-04
-8.999999999999999754e-04
-8.809999999999999472e-04
-9.120000000000000502e-04
-9.539999999999999869e-04
-9.389999999999999476e-04
-8.869999999999999846e-04
-8.660000000000000163e-04
-9.049999999999999885e-04
-9.449999999999999850e-04
-9.349999999999999587e-04
-8.859999999999999603e-04
-8.670000000000000406e-04
-9.020000000000000240e-04
-9.370000000000000074e-04
-9.269999999999999811e-04
-8.769999999999999584e-04
-8.549999999999999658e-04
-8.959999999999999866e-04
-9.399999999999999719e-04
-9.309999999999999699e-04
-8.769999999999999584e-04
-8.540000000000000499e-04
-8.949999999999999623e-04
-9.380000000000000317e-04
-9.280000000000000054e-04
-8.809999999999999472e-04
-8.580000000000000387e-04
-8.999999999999999754e-04
-9.449999999999999850e-04
-9.340000000000000429e-04
-8.840000000000000201e-04
-8.610000000000000032e-04
-8.989999999999999511e-04
-9.439999999999999607e-04
-9.359999999999999831e-04
-8.899999999999999491e-04
-8.700000000000000051e-04
-9.089999999999999773e-04
-9.489999999999999738e-04
-9.409999999999999962e-04
-8.880000000000000089e-04
-8.679999999999999565e-04
-9.079999999999999530e-04
-9.520000000000000467e-04
-9.409999999999999962e-04
-8.959999999999999866e-04
-8.760000000000000425e-04
-9.129999999999999661e-04
-9.569999999999999514e-04
-9.460000000000000093e-04
-8.980000000000000352e-04
-8.800000000000000313e-04
-9.179999999999999792e-04
-9.629999999999999888e-04
-9.520000000000000467e-04
-9.009999999999999997e-04
-8.840000000000000201e-04
-9.200000000000000278e-04
-9.449999999999999850e-04
-9.229999999999999923e-04
-8.630000000000000518e-04
-8.300000000000000086e-04
-8.540000000000000499e-04
-8.869999999999999846e-04
-8.819999999999999715e-04
-8.469999999999999881e-04
-8.210000000000000067e-04
-8.450000000000000479e-04
-8.729999999999999696e-04
-8.540000000000000499e-04
-8.000000000000000383e-04
-7.839999999999999747e-04
-8.419999999999999750e-04
-8.949999999999999623e-04
-8.880000000000000089e-04
-8.499999999999999526e-04
-8.369999999999999619e-04
-8.919999999999999978e-04
-9.359999999999999831e-04
-9.309999999999999699e-04
-8.980000000000000352e-04
-8.980000000000000352e-04
-9.399999999999999719e-04
-9.840000000000000656e-04
-9.799999999999999684e-04
-9.349999999999999587e-04
-9.150000000000000147e-04
-9.539999999999999869e-04
-9.970000000000000563e-04
-9.870000000000000301e-04
-9.389999999999999476e-04
-9.200000000000000278e-04
-9.569999999999999514e-04
-9.990000000000001049e-04
-9.870000000000000301e-04
-9.330000000000000186e-04
-9.120000000000000502e-04
-9.460000000000000093e-04
-9.790000000000000525e-04
-9.799999999999999684e-04
-9.770000000000000039e-04
-9.829999999999999329e-04
-1.026000000000000002e-03
-1.020000000000000073e-03
-8.469999999999999881e-04
-4.870000000000000197e-04
-1.479999999999999925e-04
-1.800000000000000046e-05
1.269999999999999970e-04
2.210000000000000050e-04
5.700000000000000314e-05
-2.079999999999999872e-04
-5.240000000000000517e-04
-8.040000000000000271e-04
-9.079999999999999530e-04
-8.819999999999999715e-04
-8.440000000000000236e-04
-8.649999999999999920e-04
-9.100000000000000016e-04
-9.129999999999999661e-04
-8.750000000000000182e-04
-8.559999999999999901e-04
-8.970000000000000109e-04
-9.430000000000000448e-04
-9.319999999999999942e-04
-8.829999999999999958e-04
-8.620000000000000275e-04
-8.959999999999999866e-04
-9.389999999999999476e-04
-9.290000000000000297e-04
-8.800000000000000313e-04
-8.499999999999999526e-04
-8.869999999999999846e-04
-9.290000000000000297e-04
-9.200000000000000278e-04
-8.679999999999999565e-04
-8.459999999999999638e-04
-8.819999999999999715e-04
-9.240000000000000166e-04
-9.150000000000000147e-04
-8.620000000000000275e-04
-8.339999999999999974e-04
-8.639999999999999677e-04
-9.060000000000000128e-04
-8.989999999999999511e-04
-8.409999999999999507e-04
-8.149999999999999693e-04
-8.459999999999999638e-04
-8.850000000000000444e-04
-8.769999999999999584e-04
-8.239999999999999712e-04
-7.919999999999999523e-04
-8.220000000000000310e-04
-8.620000000000000275e-04
-8.499999999999999526e-04
-7.960000000000000495e-04
-7.669999999999999951e-04
-7.929999999999999766e-04
-8.260000000000000198e-04
-8.130000000000000291e-04
-7.619999999999999820e-04
-7.349999999999999763e-04
-7.659999999999999708e-04
-7.979999999999999897e-04
-7.839999999999999747e-04
-7.399999999999999894e-04
-7.079999999999999705e-04
-7.399999999999999894e-04
-7.799999999999999859e-04
-7.699999999999999597e-04
-7.219999999999999855e-04
-6.970000000000000284e-04
-7.370000000000000249e-04
-7.889999999999999878e-04
-7.950000000000000252e-04
-7.619999999999999820e-04
-7.590000000000000175e-04
-8.149999999999999693e-04
-8.769999999999999584e-04
-8.899999999999999491e-04
-8.610000000000000032e-04
-8.549999999999999658e-04
-8.970000000000000109e-04
-9.569999999999999514e-04
-9.610000000000000486e-04
-9.219999999999999680e-04
-9.079999999999999530e-04
-9.449999999999999850e-04
-9.890000000000000787e-04
-9.870000000000000301e-04
-9.430000000000000448e-04
-9.210000000000000521e-04
-9.619999999999999645e-04
-1.005000000000000034e-03
-9.990000000000001049e-04
-9.550000000000000112e-04
-9.309999999999999699e-04
-9.640000000000000131e-04
-1.005999999999999950e-03
-9.909999999999999105e-04
-9.430000000000000448e-04
-9.179999999999999792e-04
-9.489999999999999738e-04
-9.909999999999999105e-04
-9.840000000000000656e-04
-9.359999999999999831e-04
-9.100000000000000016e-04
-9.439999999999999607e-04
-9.859999999999998974e-04
-9.799999999999999684e-04
-9.300000000000000541e-04
-9.060000000000000128e-04
-9.420000000000000205e-04
-9.840000000000000656e-04
-9.749999999999999552e-04
-9.269999999999999811e-04
-9.030000000000000483e-04
-9.319999999999999942e-04
-9.810000000000001011e-04
-9.790000000000000525e-04
-9.349999999999999587e-04
-9.089999999999999773e-04
-9.470000000000000336e-04
-9.909999999999999105e-04
-9.859999999999998974e-04
-9.399999999999999719e-04
-9.160000000000000390e-04
-9.489999999999999738e-04
-9.979999999999999722e-04
-9.929999999999999591e-04
-9.449999999999999850e-04
-9.200000000000000278e-04
-9.590000000000000000e-04
-1.007000000000000083e-03
-9.990000000000001049e-04
-9.539999999999999869e-04
-9.290000000000000297e-04
-9.640000000000000131e-04
-1.010000000000000047e-03
-1.007000000000000083e-03
-9.560000000000000355e-04
-9.319999999999999942e-04
-9.700000000000000505e-04
-1.013999999999999927e-03
-1.010000000000000047e-03
-9.629999999999999888e-04
-9.359999999999999831e-04
-9.669999999999999776e-04
-1.013999999999999927e-03
-1.007000000000000083e-03
-9.640000000000000131e-04
-9.409999999999999962e-04
-9.770000000000000039e-04
-1.015000000000000060e-03
-1.007000000000000083e-03
-9.640000000000000131e-04
-9.389999999999999476e-04
-9.719999999999999907e-04
-1.016999999999999892e-03
-1.013999999999999927e-03
-9.669999999999999776e-04
-9.409999999999999962e-04
-9.770000000000000039e-04
-1.021999999999999905e-03
-1.020000000000000073e-03
-9.700000000000000505e-04
-9.389999999999999476e-04
-9.690000000000000262e-04
-1.013999999999999927e-03
-1.012000000000000096e-03
-9.600000000000000243e-04
-9.269999999999999811e-04
-9.510000000000000224e-04
-9.890000000000000787e-04
-9.759999999999999796e-04
-9.129999999999999661e-04
-8.760000000000000425e-04
-9.089999999999999773e-04
-9.659999999999999533e-04
-9.640000000000000131e-04
-9.009999999999999997e-04
-8.549999999999999658e-04
-8.829999999999999958e-04
-9.179999999999999792e-04
-9.229999999999999923e-04
-8.980000000000000352e-04
-8.769999999999999584e-04
-9.079999999999999530e-04
-9.659999999999999533e-04
-9.749999999999999552e-04
-9.370000000000000074e-04
-9.100000000000000016e-04
-9.520000000000000467e-04
-1.016999999999999892e-03
-1.026999999999999918e-03
-9.849999999999999815e-04
-9.629999999999999888e-04
-1.002000000000000069e-03
-1.046000000000000055e-03
-1.041000000000000042e-03
-9.950000000000000077e-04
-9.700000000000000505e-04
-1.008999999999999914e-03
-1.049999999999999935e-03
-1.051999999999999984e-03
-1.002999999999999985e-03
-9.740000000000000394e-04
-1.005000000000000034e-03
-1.049000000000000019e-03
-1.046000000000000055e-03
-9.979999999999999722e-04
-9.579999999999999757e-04
-1.002999999999999985e-03
-1.092000000000000089e-03
-1.113999999999999973e-03
-1.069999999999999988e-03
-9.940000000000000918e-04
-8.660000000000000163e-04
-5.969999999999999829e-04
-2.730000000000000222e-04
-6.499999999999999431e-05
1.440000000000000036e-04
2.020000000000000040e-04
-4.100000000000000047e-05
-3.200000000000000262e-04
-5.540000000000000219e-04
-7.669999999999999951e-04
-9.259999999999999568e-04
-9.959999999999999236e-04
-9.740000000000000394e-04
-9.020000000000000240e-04
-8.800000000000000313e-04
-9.259999999999999568e-04
-9.810000000000001011e-04
-9.829999999999999329e-04
-9.380000000000000317e-04
-9.120000000000000502e-04
-9.439999999999999607e-04
-9.899999999999999946e-04
-9.879999999999999460e-04
-9.420000000000000205e-04
-9.160000000000000390e-04
-9.449999999999999850e-04
-9.890000000000000787e-04
-9.790000000000000525e-04
-9.309999999999999699e-04
-9.049999999999999885e-04
-9.340000000000000429e-04
-9.759999999999999796e-04
-9.719999999999999907e-04
-9.219999999999999680e-04
-8.949999999999999623e-04
-9.229999999999999923e-04
-9.610000000000000486e-04
-9.579999999999999757e-04
-9.120000000000000502e-04
-8.800000000000000313e-04
-9.009999999999999997e-04
-9.430000000000000448e-04
-9.370000000000000074e-04
-8.909999999999999734e-04
-8.580000000000000387e-04
-8.779999999999999827e-04
-9.200000000000000278e-04
-9.150000000000000147e-04
-8.649999999999999920e-04
-8.270000000000000441e-04
-8.559999999999999901e-04
-8.959999999999999866e-04
-8.869999999999999846e-04
-8.360000000000000460e-04
-8.030000000000000028e-04
-8.260000000000000198e-04
-8.649999999999999920e-04
-8.599999999999999789e-04
-8.080000000000000160e-04
-7.739999999999999485e-04
-8.040000000000000271e-04
-8.459999999999999638e-04
-8.419999999999999750e-04
-7.929999999999999766e-04
-7.609999999999999577e-04
-7.879999999999999635e-04
-8.350000000000000217e-04
-8.300000000000000086e-04
-7.849999999999999990e-04
-7.649999999999999465e-04
-8.059999999999999673e-04
-8.660000000000000163e-04
-8.809999999999999472e-04
-8.549999999999999658e-04
-8.480000000000000124e-04
-8.959999999999999866e-04
-9.600000000000000243e-04
-9.759999999999999796e-04
-9.449999999999999850e-04
-9.309999999999999699e-04
-9.709999999999999664e-04
-1.028999999999999967e-03
-1.033000000000000064e-03
-9.920000000000000432e-04
-9.700000000000000505e-04
-1.007000000000000083e-03
-1.056000000000000081e-03
-1.056999999999999997e-03
-1.010000000000000047e-03
-9.820000000000000170e-04
-1.018000000000000025e-03
-1.067000000000000023e-03
-1.054999999999999948e-03
-1.013000000000000012e-03
-9.870000000000000301e-04
-1.018000000000000025e-03
-1.062000000000000010e-03
-1.062000000000000010e-03
-1.015999999999999976e-03
-9.879999999999999460e-04
-1.020999999999999989e-03
-1.062000000000000010e-03
-1.062999999999999926e-03
-1.016999999999999892e-03
-9.899999999999999946e-04
-1.023999999999999954e-03
-1.072000000000000036e-03
-1.075000000000000001e-03
-1.033000000000000064e-03
-1.008999999999999914e-03
-1.036000000000000029e-03
-1.077000000000000049e-03
-1.080999999999999930e-03
-1.033999999999999980e-03
-1.007999999999999998e-03
-1.044000000000000006e-03
-1.090000000000000040e-03
-1.092000000000000089e-03
-1.051999999999999984e-03
-1.023000000000000038e-03
-1.057999999999999913e-03
-1.100000000000000066e-03
-1.100000000000000066e-03
-1.056000000000000081e-03
-1.031000000000000015e-03
-1.062000000000000010e-03
-1.110000000000000092e-03
-1.108000000000000044e-03
-1.062000000000000010e-03
-1.038999999999999993e-03
-1.067999999999999939e-03
-1.115000000000000106e-03
-1.113999999999999973e-03
-1.070999999999999903e-03
-1.044999999999999922e-03
-1.074000000000000085e-03
-1.118000000000000070e-03
-1.115000000000000106e-03
-1.072999999999999952e-03
-1.048000000000000103e-03
-1.077000000000000049e-03
-1.121999999999999950e-03
-1.129999999999999928e-03
-1.080000000000000014e-03
-1.046000000000000055e-03
-1.079000000000000098e-03
-1.123999999999999999e-03
-1.128000000000000096e-03
-1.082999999999999978e-03
-1.054000000000000032e-03
-1.080999999999999930e-03
-1.124999999999999915e-03
-1.126000000000000048e-03
-1.075999999999999917e-03
-1.043000000000000090e-03
-1.072999999999999952e-03
-1.118999999999999986e-03
-1.119999999999999902e-03
-1.067999999999999939e-03
-1.033000000000000064e-03
-1.064999999999999974e-03
-1.111999999999999924e-03
-1.110000000000000092e-03
-1.061000000000000094e-03
-1.036000000000000029e-03
-1.066000000000000107e-03
-1.108999999999999960e-03
-1.108999999999999960e-03
-1.064000000000000059e-03
-1.030000000000000100e-03
-1.056999999999999997e-03
-1.105000000000000079e-03
-1.103000000000000031e-03
-1.062000000000000010e-03
-1.028999999999999967e-03
-1.057999999999999913e-03
-1.098000000000000018e-03
-1.100999999999999982e-03
-1.054999999999999948e-03
-1.026000000000000002e-03
-1.052999999999999900e-03
-1.098999999999999934e-03
-1.095000000000000053e-03
-1.046000000000000055e-03
-1.010999999999999963e-03
-1.031000000000000015e-03
-1.066000000000000107e-03
-1.059000000000000045e-03
-1.000000000000000021e-03
-9.579999999999999757e-04
-9.859999999999998974e-04
-1.043000000000000090e-03
-1.044000000000000006e-03
-9.829999999999999329e-04
-9.349999999999999587e-04
-9.539999999999999869e-04
-9.950000000000000077e-04
-9.979999999999999722e-04
-9.749999999999999552e-04
-9.539999999999999869e-04
-9.829999999999999329e-04
-1.041999999999999958e-03
-1.052999999999999900e-03
-1.013999999999999927e-03
-9.840000000000000656e-04
-1.018000000000000025e-03
-1.080999999999999930e-03
-1.101999999999999898e-03
-1.059999999999999961e-03
-1.033999999999999980e-03
-1.066000000000000107e-03
-1.115000000000000106e-03
-1.115000000000000106e-03
-1.067999999999999939e-03
-1.038999999999999993e-03
-1.069000000000000072e-03
-1.116000000000000021e-03
-1.115000000000000106e-03
-1.077999999999999965e-03
-1.033000000000000064e-03
-1.062000000000000010e-03
-1.110000000000000092e-03
-1.111000000000000008e-03
-1.064999999999999974e-03
-1.025000000000000086e-03
-1.056999999999999997e-03
-1.137999999999999906e-03
-1.167999999999999984e-03
-1.137999999999999906e-03
-1.072000000000000036e-03
-9.550000000000000112e-04
-7.060000000000000303e-04
-3.690000000000000246e-04
-1.550000000000000000e-04
5.700000000000000314e-05
1.530000000000000056e-04
-4.699999999999999724e-05
-3.379999999999999758e-04
-5.670000000000000127e-04
-7.799999999999999859e-04
-9.600000000000000243e-04
-1.054999999999999948e-03
-1.041999999999999958e-03
-9.749999999999999552e-04
-9.389999999999999476e-04
-9.770000000000000039e-04
-1.028000000000000051e-03
-1.031999999999999931e-03
-9.920000000000000432e-04
-9.640000000000000131e-04
-9.959999999999999236e-04
-1.038999999999999993e-03
-1.044000000000000006e-03
-9.979999999999999722e-04
-9.659999999999999533e-04
-9.909999999999999105e-04
-1.031000000000000015e-03
-1.033000000000000064e-03
-9.829999999999999329e-04
-9.539999999999999869e-04
-9.829999999999999329e-04
-1.031999999999999931e-03
-1.028999999999999967e-03
-9.770000000000000039e-04
-9.439999999999999607e-04
-9.719999999999999907e-04
-1.016999999999999892e-03
-1.015000000000000060e-03
-9.650000000000000374e-04
-9.290000000000000297e-04
-9.470000000000000336e-04
-9.909999999999999105e-04
-9.909999999999999105e-04
-9.439999999999999607e-04
-9.079999999999999530e-04
-9.309999999999999699e-04
-9.749999999999999552e-04
-9.770000000000000039e-04
-9.190000000000000035e-04
-8.859999999999999603e-04
-9.110000000000000259e-04
-9.520000000000000467e-04
-9.449999999999999850e-04
-8.970000000000000109e-04
-8.580000000000000387e-04
-8.760000000000000425e-04
-9.190000000000000035e-04
-9.179999999999999792e-04
-8.670000000000000406e-04
-8.329999999999999731e-04
-8.570000000000000144e-04
-8.999999999999999754e-04
-8.980000000000000352e-04
-8.520000000000000013e-04
-8.170000000000000179e-04
-8.390000000000000105e-04
-8.829999999999999958e-04
-8.840000000000000201e-04
-8.369999999999999619e-04
-8.009999999999999542e-04
-8.329999999999999731e-04
-8.940000000000000464e-04
-9.079999999999999530e-04
-8.790000000000000070e-04
-8.689999999999999808e-04
-9.190000000000000035e-04
-9.799999999999999684e-04
-1.000999999999999937e-03
-9.680000000000000019e-04
-9.479999999999999495e-04
-9.879999999999999460e-04
-1.044000000000000006e-03
-1.056000000000000081e-03
-1.016999999999999892e-03
-9.870000000000000301e-04
-1.018000000000000025e-03
-1.070999999999999903e-03
-1.074000000000000085e-03
-1.033000000000000064e-03
-1.000999999999999937e-03
-1.026000000000000002e-03
-1.075999999999999917e-03
-1.075000000000000001e-03
-1.030000000000000100e-03
-9.950000000000000077e-04
-1.021999999999999905e-03
-1.066000000000000107e-03
-1.067000000000000023e-03
-1.020999999999999989e-03
-9.920000000000000432e-04
-1.018000000000000025e-03
-1.059000000000000045e-03
-1.062000000000000010e-03
-1.020000000000000073e-03
-9.840000000000000656e-04
-1.003999999999999901e-03
-1.054000000000000032e-03
-1.059000000000000045e-03
-1.015000000000000060e-03
-9.870000000000000301e-04
-1.013000000000000012e-03
-1.059000000000000045e-03
-1.056000000000000081e-03
-1.010000000000000047e-03
-9.779999999999999197e-04
-1.010999999999999963e-03
-1.057999999999999913e-03
-1.059000000000000045e-03
-1.015999999999999976e-03
-9.840000000000000656e-04
-1.012000000000000096e-03
-1.061000000000000094e-03
-1.069000000000000072e-03
-1.026999999999999918e-03
-9.950000000000000077e-04
-1.023000000000000038e-03
-1.077000000000000049e-03
-1.080000000000000014e-03
-1.033000000000000064e-03
-1.000000000000000021e-03
-1.021999999999999905e-03
-1.069000000000000072e-03
-1.077999999999999965e-03
-1.031999999999999931e-03
-9.979999999999999722e-04
-1.030000000000000100e-03
-1.075999999999999917e-03
-1.077000000000000049e-03
-1.031000000000000015e-03
-9.990000000000001049e-04
-1.023000000000000038e-03
-1.074000000000000085e-03
-1.079000000000000098e-03
-1.028999999999999967e-03
-1.000999999999999937e-03
-1.025000000000000086e-03
-1.075999999999999917e-03
-1.082999999999999978e-03
-1.033000000000000064e-03
-9.970000000000000563e-04
-1.026000000000000002e-03
-1.069999999999999988e-03
-1.077999999999999965e-03
-1.031999999999999931e-03
-9.979999999999999722e-04
-1.026999999999999918e-03
-1.070999999999999903e-03
-1.077000000000000049e-03
-1.031999999999999931e-03
-9.940000000000000918e-04
-1.020000000000000073e-03
-1.070999999999999903e-03
-1.067000000000000023e-03
-1.021999999999999905e-03
-9.890000000000000787e-04
-1.018999999999999941e-03
-1.067999999999999939e-03
-1.069000000000000072e-03
-1.025000000000000086e-03
-9.890000000000000787e-04
-1.018000000000000025e-03
-1.062999999999999926e-03
-1.067999999999999939e-03
-1.026000000000000002e-03
-9.929999999999999591e-04
-1.018999999999999941e-03
-1.064999999999999974e-03
-1.062999999999999926e-03
-1.008999999999999914e-03
-9.669999999999999776e-04
-9.820000000000000170e-04
-1.016999999999999892e-03
-1.010999999999999963e-03
-9.610000000000000486e-04
-9.319999999999999942e-04
-9.680000000000000019e-04
-1.013999999999999927e-03
-1.000999999999999937e-03
-9.349999999999999587e-04
-8.919999999999999978e-04
-9.100000000000000016e-04
-9.610000000000000486e-04
-9.859999999999998974e-04
-9.510000000000000224e-04
-9.309999999999999699e-04
-9.690000000000000262e-04
-1.028999999999999967e-03
-1.036000000000000029e-03
-9.920000000000000432e-04
-9.700000000000000505e-04
-1.016999999999999892e-03
-1.077000000000000049e-03
-1.087999999999999991e-03
-1.049000000000000019e-03
-1.018999999999999941e-03
-1.041000000000000042e-03
-1.082999999999999978e-03
-1.087999999999999991e-03
-1.051999999999999984e-03
-1.018999999999999941e-03
-1.051000000000000068e-03
-1.098000000000000018e-03
-1.098999999999999934e-03
-1.048000000000000103e-03
-1.016999999999999892e-03
-1.036000000000000029e-03
-1.087000000000000076e-03
-1.080999999999999930e-03
-1.025000000000000086e-03
-1.015000000000000060e-03
-1.090000000000000040e-03
-1.159000000000000091e-03
-1.164000000000000104e-03
-1.036999999999999944e-03
-8.030000000000000028e-04
-4.840000000000000010e-04
-2.849999999999999886e-04
-1.569999999999999944e-04
5.300000000000000078e-05
9.899999999999999404e-05
-1.510000000000000112e-04
-4.710000000000000102e-04
-7.079999999999999705e-04
-8.829999999999999958e-04
-9.810000000000001011e-04
-1.028000000000000051e-03
-1.046000000000000055e-03
-1.028999999999999967e-03
-9.719999999999999907e-04
-9.370000000000000074e-04
-9.669999999999999776e-04
-1.013999999999999927e-03
-1.023000000000000038e-03
-9.820000000000000170e-04
-9.460000000000000093e-04
-9.680000000000000019e-04
-1.015000000000000060e-03
-1.018999999999999941e-03
-9.719999999999999907e-04
-9.349999999999999587e-04
-9.619999999999999645e-04
-1.010999999999999963e-03
-1.020000000000000073e-03
-9.650000000000000374e-04
-9.290000000000000297e-04
-9.489999999999999738e-04
-9.870000000000000301e-04
-9.940000000000000918e-04
-9.489999999999999738e-04
-9.120000000000000502e-04
-9.309999999999999699e-04
-9.759999999999999796e-04
-9.759999999999999796e-04
-9.250000000000000409e-04
-8.899999999999999491e-04
-9.110000000000000259e-04
-9.590000000000000000e-04
-9.629999999999999888e-04
-9.129999999999999661e-04
-8.700000000000000051e-04
-8.869999999999999846e-04
-9.290000000000000297e-04
-9.290000000000000297e-04
-8.790000000000000070e-04
-8.409999999999999507e-04
-8.610000000000000032e-04
-9.009999999999999997e-04
-9.070000000000000371e-04
-8.580000000000000387e-04
-8.069999999999999916e-04
-8.289999999999999843e-04
-8.700000000000000051e-04
-8.720000000000000537e-04
-8.239999999999999712e-04
-7.879999999999999635e-04
-8.069999999999999916e-04
-8.520000000000000013e-04
-8.480000000000000124e-04
-7.929999999999999766e-04
-7.540000000000000044e-04
-7.780000000000000457e-04
-8.279999999999999600e-04
-8.339999999999999974e-04
-7.990000000000000140e-04
-7.709999999999999840e-04
-8.059999999999999673e-04
-8.689999999999999808e-04
-8.949999999999999623e-04
-8.679999999999999565e-04
-8.559999999999999901e-04
-9.020000000000000240e-04
-9.659999999999999533e-04
-9.879999999999999460e-04
-9.579999999999999757e-04
-9.330000000000000186e-04
-9.680000000000000019e-04
-1.021999999999999905e-03
-1.028000000000000051e-03
-9.870000000000000301e-04
-9.560000000000000355e-04
-9.840000000000000656e-04
-1.036000000000000029e-03
-1.044999999999999922e-03
-9.920000000000000432e-04
-9.579999999999999757e-04
-9.890000000000000787e-04
-1.038999999999999993e-03
-1.034999999999999896e-03
-9.890000000000000787e-04
-9.550000000000000112e-04
-9.779999999999999197e-04
-1.025000000000000086e-03
-1.030000000000000100e-03
-9.859999999999998974e-04
-9.479999999999999495e-04
-9.700000000000000505e-04
-1.021999999999999905e-03
-1.028999999999999967e-03
-9.840000000000000656e-04
-9.420000000000000205e-04
-9.629999999999999888e-04
-1.015999999999999976e-03
-1.023000000000000038e-03
-9.770000000000000039e-04
-9.420000000000000205e-04
-9.719999999999999907e-04
-1.018000000000000025e-03
-1.021999999999999905e-03
-9.759999999999999796e-04
-9.359999999999999831e-04
-9.650000000000000374e-04
-1.013000000000000012e-03
-1.020000000000000073e-03
-9.779999999999999197e-04
-9.439999999999999607e-04
-9.709999999999999664e-04
-1.020999999999999989e-03
-1.026000000000000002e-03
-9.820000000000000170e-04
-9.499999999999999981e-04
-9.770000000000000039e-04
-1.020999999999999989e-03
-1.026000000000000002e-03
-9.899999999999999946e-04
-9.520000000000000467e-04
-9.799999999999999684e-04
-1.028999999999999967e-03
-1.033000000000000064e-03
-9.879999999999999460e-04
-9.539999999999999869e-04
-9.770000000000000039e-04
-1.023000000000000038e-03
-1.033000000000000064e-03
-9.950000000000000077e-04
-9.590000000000000000e-04
-9.799999999999999684e-04
-1.025000000000000086e-03
-1.028999999999999967e-03
-9.870000000000000301e-04
-9.529999999999999626e-04
-9.790000000000000525e-04
-1.028999999999999967e-03
-1.033000000000000064e-03
-9.929999999999999591e-04
-9.590000000000000000e-04
-9.779999999999999197e-04
-1.023000000000000038e-03
-1.031999999999999931e-03
-9.820000000000000170e-04
-9.340000000000000429e-04
-9.470000000000000336e-04
-9.810000000000001011e-04
-9.740000000000000394e-04
-9.160000000000000390e-04
-8.779999999999999827e-04
-9.169999999999999549e-04
-9.650000000000000374e-04
-9.569999999999999514e-04
-8.919999999999999978e-04
-8.390000000000000105e-04
-8.570000000000000144e-04
-9.079999999999999530e-04
-9.200000000000000278e-04
-8.869999999999999846e-04
-8.670000000000000406e-04
-9.070000000000000371e-04
-9.700000000000000505e-04
-9.840000000000000656e-04
-9.499999999999999981e-04
-9.229999999999999923e-04
-9.669999999999999776e-04
-1.030000000000000100e-03
-1.048000000000000103e-03
-1.007000000000000083e-03
-9.719999999999999907e-04
-9.940000000000000918e-04
-1.046999999999999971e-03
-1.056999999999999997e-03
-1.020999999999999989e-03
-9.859999999999998974e-04
-1.007000000000000083e-03
-1.054000000000000032e-03
-1.059999999999999961e-03
-1.013999999999999927e-03
-9.799999999999999684e-04
-1.003999999999999901e-03
-1.049999999999999935e-03
-1.056000000000000081e-03
-1.005000000000000034e-03
-9.539999999999999869e-04
-9.920000000000000432e-04
-1.085000000000000027e-03
-1.118999999999999986e-03
-1.080999999999999930e-03
-9.770000000000000039e-04
-8.130000000000000291e-04
-5.190000000000000386e-04
-2.469999999999999865e-04
-7.200000000000000182e-05
1.410000000000000120e-04
1.610000000000000103e-04
-1.090000000000000067e-04
-4.029999999999999837e-04
-6.030000000000000204e-04
-7.870000000000000476e-04
-9.520000000000000467e-04
-1.026999999999999918e-03
-1.003999999999999901e-03
-9.370000000000000074e-04
-8.850000000000000444e-04
-9.100000000000000016e-04
-9.690000000000000262e-04
-9.840000000000000656e-04
-9.420000000000000205e-04
-9.060000000000000128e-04
-9.219999999999999680e-04
-9.719999999999999907e-04
-9.810000000000001011e-04
-9.370000000000000074e-04
-8.999999999999999754e-04
-9.139999999999999904e-04
-9.610000000000000486e-04
-9.650000000000000374e-04
-9.200000000000000278e-04
-8.840000000000000201e-04
-9.039999999999999642e-04
-9.499999999999999981e-04
-9.569999999999999514e-04
-9.110000000000000259e-04
-8.760000000000000425e-04
-8.930000000000000221e-04
-9.370000000000000074e-04
-9.380000000000000317e-04
-8.949999999999999623e-04
-8.549999999999999658e-04
-8.729999999999999696e-04
-9.200000000000000278e-04
-9.250000000000000409e-04
-8.800000000000000313e-04
-8.369999999999999619e-04
-8.520000000000000013e-04
-8.970000000000000109e-04
-9.030000000000000483e-04
-8.520000000000000013e-04
-8.080000000000000160e-04
-8.239999999999999712e-04
-8.649999999999999920e-04
-8.649999999999999920e-04
-8.180000000000000422e-04
-7.730000000000000326e-04
-7.889999999999999878e-04
-8.319999999999999488e-04
-8.390000000000000105e-04
-7.919999999999999523e-04
-7.479999999999999670e-04
-7.640000000000000306e-04
-8.130000000000000291e-04
-8.140000000000000534e-04
-7.609999999999999577e-04
-7.219999999999999855e-04
-7.439999999999999782e-04
-7.849999999999999990e-04
-7.960000000000000495e-04
-7.560000000000000530e-04
-7.249999999999999500e-04
-7.579999999999999932e-04
-8.279999999999999600e-04
-8.520000000000000013e-04
-8.279999999999999600e-04
-8.140000000000000534e-04
-8.540000000000000499e-04
-9.200000000000000278e-04
-9.449999999999999850e-04
-9.169999999999999549e-04
-8.930000000000000221e-04
-9.219999999999999680e-04
-9.820000000000000170e-04
-9.959999999999999236e-04
-9.590000000000000000e-04
-9.280000000000000054e-04
-9.569999999999999514e-04
-1.007999999999999998e-03
-1.010999999999999963e-03
-9.690000000000000262e-04
-9.340000000000000429e-04
-9.550000000000000112e-04
-1.000000000000000021e-03
-1.007000000000000083e-03
-9.659999999999999533e-04
-9.269999999999999811e-04
-9.479999999999999495e-04
-9.970000000000000563e-04
-1.003999999999999901e-03
-9.600000000000000243e-04
-9.210000000000000521e-04
-9.430000000000000448e-04
-9.899999999999999946e-04
-1.000000000000000021e-03
-9.569999999999999514e-04
-9.200000000000000278e-04
-9.409999999999999962e-04
-9.849999999999999815e-04
-9.940000000000000918e-04
-9.499999999999999981e-04
-9.129999999999999661e-04
-9.359999999999999831e-04
-9.849999999999999815e-04
-9.929999999999999591e-04
-9.510000000000000224e-04
-9.129999999999999661e-04
-9.319999999999999942e-04
-9.810000000000001011e-04
-9.929999999999999591e-04
-9.499999999999999981e-04
-9.160000000000000390e-04
-9.380000000000000317e-04
-9.870000000000000301e-04
-9.970000000000000563e-04
-9.539999999999999869e-04
-9.250000000000000409e-04
-9.399999999999999719e-04
-9.870000000000000301e-04
-1.000999999999999937e-03
-9.590000000000000000e-04
-9.259999999999999568e-04
-9.510000000000000224e-04
-1.000000000000000021e-03
-1.008999999999999914e-03
-9.680000000000000019e-04
-9.349999999999999587e-04
-9.579999999999999757e-04
-1.005000000000000034e-03
-1.016999999999999892e-03
-9.749999999999999552e-04
-9.409999999999999962e-04
-9.619999999999999645e-04
-1.008999999999999914e-03
-1.020999999999999989e-03
-9.799999999999999684e-04
-9.399999999999999719e-04
-9.619999999999999645e-04
-1.010999999999999963e-03
-1.021999999999999905e-03
-9.790000000000000525e-04
-9.380000000000000317e-04
-9.569999999999999514e-04
-1.007000000000000083e-03
-1.016999999999999892e-03
-9.749999999999999552e-04
-9.370000000000000074e-04
-9.560000000000000355e-04
-9.979999999999999722e-04
-9.970000000000000563e-04
-9.449999999999999850e-04
-8.899999999999999491e-04
-8.940000000000000464e-04
-9.380000000000000317e-04
-9.370000000000000074e-04
-9.030000000000000483e-04
-8.729999999999999696e-04
-8.899999999999999491e-04
-9.160000000000000390e-04
-9.100000000000000016e-04
-8.670000000000000406e-04
-8.300000000000000086e-04
-8.570000000000000144e-04
-9.210000000000000521e-04
-9.319999999999999942e-04
-8.959999999999999866e-04
-8.750000000000000182e-04
-9.060000000000000128e-04
-9.569999999999999514e-04
-9.730000000000000151e-04
-9.389999999999999476e-04
-9.210000000000000521e-04
-9.510000000000000224e-04
-1.005000000000000034e-03
-1.023999999999999954e-03
-9.870000000000000301e-04
-9.479999999999999495e-04
-9.650000000000000374e-04
-1.015000000000000060e-03
-1.028999999999999967e-03
-9.929999999999999591e-04
-9.569999999999999514e-04
-9.749999999999999552e-04
-1.020000000000000073e-03
-1.031999999999999931e-03
-9.920000000000000432e-04
-9.539999999999999869e-04
-9.719999999999999907e-04
-1.007000000000000083e-03
-1.020999999999999989e-03
-1.012000000000000096e-03
-1.013000000000000012e-03
-1.038999999999999993e-03
-1.062999999999999926e-03
-9.560000000000000355e-04
-6.560000000000000076e-04
-2.610000000000000015e-04
-6.200000000000000270e-05
5.199999999999999680e-05
2.069999999999999900e-04
1.589999999999999888e-04
-9.500000000000000523e-05
-3.989999999999999949e-04
-7.179999999999999967e-04
-9.020000000000000240e-04
-9.200000000000000278e-04
-8.739999999999999939e-04
-8.769999999999999584e-04
-9.190000000000000035e-04
-9.409999999999999962e-04
-9.100000000000000016e-04
-8.769999999999999584e-04
-9.030000000000000483e-04
-9.539999999999999869e-04
-9.690000000000000262e-04
-9.269999999999999811e-04
-8.869999999999999846e-04
-9.079999999999999530e-04
-9.510000000000000224e-04
-9.550000000000000112e-04
-9.150000000000000147e-04
-8.760000000000000425e-04
-8.919999999999999978e-04
-9.399999999999999719e-04
-9.499999999999999981e-04
-9.039999999999999642e-04
-8.620000000000000275e-04
-8.790000000000000070e-04
-9.240000000000000166e-04
-9.319999999999999942e-04
-8.890000000000000333e-04
-8.469999999999999881e-04
-8.599999999999999789e-04
-9.070000000000000371e-04
-9.129999999999999661e-04
-8.670000000000000406e-04
-8.260000000000000198e-04
-8.450000000000000479e-04
-8.880000000000000089e-04
-8.970000000000000109e-04
-8.509999999999999769e-04
-8.050000000000000515e-04
-8.159999999999999936e-04
-8.620000000000000275e-04
-8.679999999999999565e-04
-8.220000000000000310e-04
-7.820000000000000345e-04
-7.889999999999999878e-04
-8.350000000000000217e-04
-8.369999999999999619e-04
-7.849999999999999990e-04
-7.450000000000000025e-04
-7.619999999999999820e-04
-8.080000000000000160e-04
-8.120000000000000048e-04
-7.649999999999999465e-04
-7.230000000000000098e-04
-7.370000000000000249e-04
-7.879999999999999635e-04
-7.950000000000000252e-04
-7.460000000000000268e-04
-7.079999999999999705e-04
-7.290000000000000473e-04
-7.810000000000000102e-04
-8.019999999999999785e-04
-7.770000000000000214e-04
-7.590000000000000175e-04
-8.009999999999999542e-04
-8.739999999999999939e-04
-8.989999999999999511e-04
-8.750000000000000182e-04
-8.520000000000000013e-04
-8.890000000000000333e-04
-9.499999999999999981e-04
-9.709999999999999664e-04
-9.389999999999999476e-04
-9.110000000000000259e-04
-9.389999999999999476e-04
-9.890000000000000787e-04
-1.000000000000000021e-03
-9.629999999999999888e-04
-9.300000000000000541e-04
-9.520000000000000467e-04
-1.000000000000000021e-03
-1.012000000000000096e-03
-9.690000000000000262e-04
-9.300000000000000541e-04
-9.489999999999999738e-04
-9.970000000000000563e-04
-1.012000000000000096e-03
-9.669999999999999776e-04
-9.269999999999999811e-04
-9.460000000000000093e-04
-9.950000000000000077e-04
-1.007000000000000083e-03
-9.600000000000000243e-04
-9.229999999999999923e-04
-9.399999999999999719e-04
-9.870000000000000301e-04
-1.000000000000000021e-03
-9.600000000000000243e-04
-9.219999999999999680e-04
-9.399999999999999719e-04
-9.849999999999999815e-04
-9.959999999999999236e-04
-9.569999999999999514e-04
-9.229999999999999923e-04
-9.370000000000000074e-04
-9.859999999999998974e-04
-9.979999999999999722e-04
-9.569999999999999514e-04
-9.160000000000000390e-04
-9.349999999999999587e-04
-9.890000000000000787e-04
-1.002000000000000069e-03
-9.650000000000000374e-04
-9.280000000000000054e-04
-9.449999999999999850e-04
-9.979999999999999722e-04
-1.010999999999999963e-03
-9.659999999999999533e-04
-9.290000000000000297e-04
-9.529999999999999626e-04
-1.005000000000000034e-03
-1.015999999999999976e-03
-9.799999999999999684e-04
-9.409999999999999962e-04
-9.659999999999999533e-04
-1.010999999999999963e-03
-1.013999999999999927e-03
-9.740000000000000394e-04
-9.389999999999999476e-04
-9.629999999999999888e-04
-1.013000000000000012e-03
-1.026000000000000002e-03
-9.870000000000000301e-04
-9.470000000000000336e-04
-9.640000000000000131e-04
-1.010999999999999963e-03
-1.023999999999999954e-03
-9.849999999999999815e-04
-9.470000000000000336e-04
-9.650000000000000374e-04
-1.008999999999999914e-03
-1.023000000000000038e-03
-9.840000000000000656e-04
-9.430000000000000448e-04
-9.669999999999999776e-04
-1.015999999999999976e-03
-1.026999999999999918e-03
-9.899999999999999946e-04
-9.499999999999999981e-04
-9.650000000000000374e-04
-1.015000000000000060e-03
-1.025000000000000086e-03
-9.859999999999998974e-04
-9.489999999999999738e-04
-9.659999999999999533e-04
-1.010999999999999963e-03
-1.018999999999999941e-03
-9.669999999999999776e-04
-9.150000000000000147e-04
-9.240000000000000166e-04
-9.619999999999999645e-04
-9.629999999999999888e-04
-9.150000000000000147e-04
-8.819999999999999715e-04
-9.129999999999999661e-04
-9.529999999999999626e-04
-9.470000000000000336e-04
-8.930000000000000221e-04
-8.440000000000000236e-04
-8.630000000000000518e-04
-9.240000000000000166e-04
-9.560000000000000355e-04
-9.210000000000000521e-04
-8.790000000000000070e-04
-9.120000000000000502e-04
-9.790000000000000525e-04
-9.959999999999999236e-04
-9.560000000000000355e-04
-9.300000000000000541e-04
-9.690000000000000262e-04
-1.026999999999999918e-03
-1.041000000000000042e-03
-1.005999999999999950e-03
-9.719999999999999907e-04
-9.959999999999999236e-04
-1.046999999999999971e-03
-1.056000000000000081e-03
-1.015999999999999976e-03
-9.810000000000001011e-04
-1.002000000000000069e-03
-1.044000000000000006e-03
-1.057999999999999913e-03
-1.018999999999999941e-03
-9.759999999999999796e-04
-9.890000000000000787e-04
-1.033999999999999980e-03
-1.038000000000000077e-03
-9.990000000000001049e-04
-9.909999999999999105e-04
-1.043000000000000090e-03
-1.101999999999999898e-03
-1.092000000000000089e-03
-9.340000000000000429e-04
-6.409999999999999682e-04
-3.089999999999999756e-04
-1.450000000000000009e-04
-3.999999999999999819e-06
1.890000000000000133e-04
1.399999999999999877e-04
-1.630000000000000047e-04
-4.879999999999999898e-04
-7.690000000000000438e-04
-8.899999999999999491e-04
-9.030000000000000483e-04
-9.139999999999999904e-04
-9.439999999999999607e-04
-9.470000000000000336e-04
-9.169999999999999549e-04
-8.899999999999999491e-04
-9.110000000000000259e-04
-9.650000000000000374e-04
-9.779999999999999197e-04
-9.460000000000000093e-04
-9.020000000000000240e-04
-9.169999999999999549e-04
-9.640000000000000131e-04
-9.790000000000000525e-04
-9.359999999999999831e-04
-8.919999999999999978e-04
-9.089999999999999773e-04
-9.539999999999999869e-04
-9.640000000000000131e-04
-9.240000000000000166e-04
-8.840000000000000201e-04
-8.999999999999999754e-04
-9.430000000000000448e-04
-9.539999999999999869e-04
-9.110000000000000259e-04
-8.670000000000000406e-04
-8.919999999999999978e-04
-9.319999999999999942e-04
-9.380000000000000317e-04
-8.930000000000000221e-04
-8.499999999999999526e-04
-8.649999999999999920e-04
-9.100000000000000016e-04
-9.210000000000000521e-04
-8.750000000000000182e-04
-8.310000000000000329e-04
-8.440000000000000236e-04
-8.869999999999999846e-04
-8.989999999999999511e-04
-8.490000000000000368e-04
-8.009999999999999542e-04
-8.149999999999999693e-04
-8.570000000000000144e-04
-8.670000000000000406e-04
-8.220000000000000310e-04
-7.759999999999999971e-04
-7.889999999999999878e-04
-8.310000000000000329e-04
-8.400000000000000348e-04
-7.969999999999999654e-04
-7.579999999999999932e-04
-7.720000000000000083e-04
-8.159999999999999936e-04
-8.260000000000000198e-04
-7.829999999999999504e-04
-7.439999999999999782e-04
-7.590000000000000175e-04
-8.090000000000000403e-04
-8.239999999999999712e-04
-7.889999999999999878e-04
-7.659999999999999708e-04
-8.030000000000000028e-04
-8.689999999999999808e-04
-8.999999999999999754e-04
-8.760000000000000425e-04
-8.559999999999999901e-04
-8.899999999999999491e-04
-9.539999999999999869e-04
-9.829999999999999329e-04
-9.560000000000000355e-04
-9.259999999999999568e-04
-9.499999999999999981e-04
-1.005000000000000034e-03
-1.021999999999999905e-03
-9.810000000000001011e-04
-9.449999999999999850e-04
-9.680000000000000019e-04
-1.013999999999999927e-03
-1.031999999999999931e-03
-9.909999999999999105e-04
-9.510000000000000224e-04
-9.690000000000000262e-04
-1.015000000000000060e-03
-1.028000000000000051e-03
-9.879999999999999460e-04
-9.479999999999999495e-04
-9.650000000000000374e-04
-1.010999999999999963e-03
-1.023000000000000038e-03
-9.779999999999999197e-04
-9.340000000000000429e-04
-9.529999999999999626e-04
-1.000999999999999937e-03
-1.013000000000000012e-03
-9.740000000000000394e-04
-9.399999999999999719e-04
-9.539999999999999869e-04
-9.990000000000001049e-04
-1.015000000000000060e-03
-9.719999999999999907e-04
-9.290000000000000297e-04
-9.479999999999999495e-04
-9.970000000000000563e-04
-1.013000000000000012e-03
-9.759999999999999796e-04
-9.359999999999999831e-04
-9.539999999999999869e-04
-1.007000000000000083e-03
-1.018000000000000025e-03
-9.749999999999999552e-04
-9.409999999999999962e-04
-9.610000000000000486e-04
-1.010999999999999963e-03
-1.026000000000000002e-03
-9.859999999999998974e-04
-9.460000000000000093e-04
-9.669999999999999776e-04
-1.018999999999999941e-03
-1.033000000000000064e-03
-9.909999999999999105e-04
-9.520000000000000467e-04
-9.709999999999999664e-04
-1.015999999999999976e-03
-1.030000000000000100e-03
-9.909999999999999105e-04
-9.579999999999999757e-04
-9.709999999999999664e-04
-1.020999999999999989e-03
-1.031000000000000015e-03
-9.909999999999999105e-04
-9.539999999999999869e-04
-9.730000000000000151e-04
-1.020999999999999989e-03
-1.034999999999999896e-03
-9.870000000000000301e-04
-9.569999999999999514e-04
-9.740000000000000394e-04
-1.020000000000000073e-03
-1.034999999999999896e-03
-1.000000000000000021e-03
-9.529999999999999626e-04
-9.690000000000000262e-04
-1.016999999999999892e-03
-1.033999999999999980e-03
-9.940000000000000918e-04
-9.479999999999999495e-04
-9.700000000000000505e-04
-1.018000000000000025e-03
-1.028000000000000051e-03
-9.859999999999998974e-04
-9.479999999999999495e-04
-9.650000000000000374e-04
-1.013000000000000012e-03
-1.025000000000000086e-03
-9.849999999999999815e-04
-9.489999999999999738e-04
-9.669999999999999776e-04
-1.010999999999999963e-03
-1.028000000000000051e-03
-9.870000000000000301e-04
-9.479999999999999495e-04
-9.669999999999999776e-04
-1.015999999999999976e-03
-1.026999999999999918e-03
-9.899999999999999946e-04
-9.510000000000000224e-04
-9.640000000000000131e-04
-1.007999999999999998e-03
-1.018999999999999941e-03
-9.709999999999999664e-04
-9.179999999999999792e-04
-9.309999999999999699e-04
-9.600000000000000243e-04
-9.610000000000000486e-04
-9.210000000000000521e-04
-8.980000000000000352e-04
-9.160000000000000390e-04
-9.520000000000000467e-04
-9.439999999999999607e-04
-8.919999999999999978e-04
-8.459999999999999638e-04
-8.670000000000000406e-04
-9.389999999999999476e-04
-9.610000000000000486e-04
-9.190000000000000035e-04
-8.959999999999999866e-04
-9.229999999999999923e-04
-9.779999999999999197e-04
-9.990000000000001049e-04
-9.579999999999999757e-04
-9.349999999999999587e-04
-9.709999999999999664e-04
-1.026000000000000002e-03
-1.041999999999999958e-03
-1.003999999999999901e-03
-9.659999999999999533e-04
-9.859999999999998974e-04
-1.036999999999999944e-03
-1.044999999999999922e-03
-1.008999999999999914e-03
-9.669999999999999776e-04
-9.840000000000000656e-04
-1.034999999999999896e-03
-1.048000000000000103e-03
-1.005000000000000034e-03
-9.640000000000000131e-04
-9.799999999999999684e-04
-1.023999999999999954e-03
-1.033999999999999980e-03
-1.015000000000000060e-03
-1.013000000000000012e-03
-1.049999999999999935e-03
-1.098000000000000018e-03
-1.039999999999999909e-03
-7.940000000000000009e-04
-4.070000000000000267e-04
-1.499999999999999869e-04
-5.099999999999999960e-05
1.169999999999999979e-04
1.640000000000000019e-04
-5.000000000000000240e-05
-3.429999999999999889e-04
-6.620000000000000450e-04
-8.850000000000000444e-04
-9.399999999999999719e-04
-9.089999999999999773e-04
-9.100000000000000016e-04
-9.439999999999999607e-04
-9.629999999999999888e-04
-9.330000000000000186e-04
-9.049999999999999885e-04
-9.250000000000000409e-04
-9.680000000000000019e-04
-9.799999999999999684e-04
-9.389999999999999476e-04
-8.980000000000000352e-04
-9.190000000000000035e-04
-9.680000000000000019e-04
-9.829999999999999329e-04
-9.409999999999999962e-04
-8.980000000000000352e-04
-9.089999999999999773e-04
-9.590000000000000000e-04
-9.730000000000000151e-04
-9.269999999999999811e-04
-8.869999999999999846e-04
-9.070000000000000371e-04
-9.510000000000000224e-04
-9.619999999999999645e-04
-9.190000000000000035e-04
-8.760000000000000425e-04
-8.890000000000000333e-04
-9.370000000000000074e-04
-9.420000000000000205e-04
-8.980000000000000352e-04
-8.589999999999999546e-04
-8.700000000000000051e-04
-9.139999999999999904e-04
-9.240000000000000166e-04
-8.819999999999999715e-04
-8.379999999999999862e-04
-8.490000000000000368e-04
-8.980000000000000352e-04
-9.070000000000000371e-04
-8.570000000000000144e-04
-8.130000000000000291e-04
-8.270000000000000441e-04
-8.670000000000000406e-04
-8.769999999999999584e-04
-8.300000000000000086e-04
-7.839999999999999747e-04
-7.969999999999999654e-04
-8.409999999999999507e-04
-8.499999999999999526e-04
-8.069999999999999916e-04
-7.579999999999999932e-04
-7.739999999999999485e-04
-8.220000000000000310e-04
-8.300000000000000086e-04
-7.849999999999999990e-04
-7.450000000000000025e-04
-7.609999999999999577e-04
-8.109999999999999805e-04
-8.270000000000000441e-04
-7.969999999999999654e-04
-7.749999999999999728e-04
-8.069999999999999916e-04
-8.739999999999999939e-04
-9.030000000000000483e-04
-8.800000000000000313e-04
-8.610000000000000032e-04
-8.989999999999999511e-04
-9.619999999999999645e-04
-9.870000000000000301e-04
-9.550000000000000112e-04
-9.280000000000000054e-04
-9.529999999999999626e-04
-1.005999999999999950e-03
-1.020999999999999989e-03
-9.890000000000000787e-04
-9.489999999999999738e-04
-9.669999999999999776e-04
-1.018000000000000025e-03
-1.028000000000000051e-03
-9.879999999999999460e-04
-9.479999999999999495e-04
-9.640000000000000131e-04
-1.010999999999999963e-03
-1.018999999999999941e-03
-9.749999999999999552e-04
-9.359999999999999831e-04
-9.569999999999999514e-04
-1.002000000000000069e-03
-1.013000000000000012e-03
-9.700000000000000505e-04
-9.330000000000000186e-04
-9.489999999999999738e-04
-9.990000000000001049e-04
-1.008999999999999914e-03
-9.730000000000000151e-04
-9.319999999999999942e-04
-9.489999999999999738e-04
-9.950000000000000077e-04
-1.007999999999999998e-03
-9.719999999999999907e-04
-9.380000000000000317e-04
-9.510000000000000224e-04
-1.002000000000000069e-03
-1.012000000000000096e-03
-9.680000000000000019e-04
-9.340000000000000429e-04
-9.539999999999999869e-04
-1.002000000000000069e-03
-1.018000000000000025e-03
-9.719999999999999907e-04
-9.370000000000000074e-04
-9.600000000000000243e-04
-1.010000000000000047e-03
-1.026000000000000002e-03
-9.879999999999999460e-04
-9.499999999999999981e-04
-9.669999999999999776e-04
-1.013999999999999927e-03
-1.026000000000000002e-03
-9.859999999999998974e-04
-9.520000000000000467e-04
-9.690000000000000262e-04
-1.015999999999999976e-03
-1.030000000000000100e-03
-9.920000000000000432e-04
-9.610000000000000486e-04
-9.759999999999999796e-04
-1.020000000000000073e-03
-1.031000000000000015e-03
-9.879999999999999460e-04
-9.499999999999999981e-04
-9.719999999999999907e-04
-1.018000000000000025e-03
-1.031000000000000015e-03
-9.879999999999999460e-04
-9.499999999999999981e-04
-9.680000000000000019e-04
-1.023999999999999954e-03
-1.031000000000000015e-03
-9.929999999999999591e-04
-9.539999999999999869e-04
-9.680000000000000019e-04
-1.016999999999999892e-03
-1.031000000000000015e-03
-9.920000000000000432e-04
-9.499999999999999981e-04
-9.669999999999999776e-04
-1.013999999999999927e-03
-1.025000000000000086e-03
-9.870000000000000301e-04
-9.489999999999999738e-04
-9.690000000000000262e-04
-1.020000000000000073e-03
-1.033999999999999980e-03
-9.920000000000000432e-04
-9.499999999999999981e-04
-9.669999999999999776e-04
-1.016999999999999892e-03
-1.033000000000000064e-03
-9.940000000000000918e-04
-9.489999999999999738e-04
-9.680000000000000019e-04
-1.015999999999999976e-03
-1.025000000000000086e-03
-9.749999999999999552e-04
-9.229999999999999923e-04
-9.330000000000000186e-04
-9.740000000000000394e-04
-9.719999999999999907e-04
-9.229999999999999923e-04
-8.940000000000000464e-04
-9.129999999999999661e-04
-9.470000000000000336e-04
-9.409999999999999962e-04
-8.869999999999999846e-04
-8.419999999999999750e-04
-8.630000000000000518e-04
-9.319999999999999942e-04
-9.579999999999999757e-04
-9.139999999999999904e-04
-8.919999999999999978e-04
-9.280000000000000054e-04
-9.770000000000000039e-04
-9.879999999999999460e-04
-9.560000000000000355e-04
-9.370000000000000074e-04
-9.770000000000000039e-04
-1.021999999999999905e-03
-1.036999999999999944e-03
-1.005000000000000034e-03
-9.719999999999999907e-04
-9.890000000000000787e-04
-1.036000000000000029e-03
-1.048000000000000103e-03
-1.003999999999999901e-03
-9.640000000000000131e-04
-9.859999999999998974e-04
-1.031000000000000015e-03
-1.046999999999999971e-03
-1.008999999999999914e-03
-9.690000000000000262e-04
-9.799999999999999684e-04
-1.020000000000000073e-03
-1.018000000000000025e-03
-1.000000000000000021e-03
-1.002000000000000069e-03
-1.046000000000000055e-03
-1.097000000000000102e-03
-1.025000000000000086e-03
-7.789999999999999616e-04
-3.919999999999999873e-04
-1.659999999999999963e-04
-8.200000000000000095e-05
8.799999999999999771e-05
1.330000000000000073e-04
-7.499999999999999343e-05
-3.710000000000000190e-04
-6.520000000000000188e-04
-8.750000000000000182e-04
-9.610000000000000486e-04
-9.370000000000000074e-04
-9.280000000000000054e-04
-9.569999999999999514e-04
-9.590000000000000000e-04
-9.280000000000000054e-04
-8.970000000000000109e-04
-9.200000000000000278e-04
-9.669999999999999776e-04
-9.820000000000000170e-04
-9.399999999999999719e-04
-9.039999999999999642e-04
-9.169999999999999549e-04
-9.629999999999999888e-04
-9.779999999999999197e-04
-9.330000000000000186e-04
-8.940000000000000464e-04
-9.160000000000000390e-04
-9.600000000000000243e-04
-9.680000000000000019e-04
-9.240000000000000166e-04
-8.850000000000000444e-04
-9.009999999999999997e-04
-9.449999999999999850e-04
-9.529999999999999626e-04
-9.060000000000000128e-04
-8.660000000000000163e-04
-8.880000000000000089e-04
-9.370000000000000074e-04
-9.439999999999999607e-04
-8.999999999999999754e-04
-8.620000000000000275e-04
-8.750000000000000182e-04
-9.229999999999999923e-04
-9.319999999999999942e-04
-8.840000000000000201e-04
-8.390000000000000105e-04
-8.570000000000000144e-04
-9.009999999999999997e-04
-9.049999999999999885e-04
-8.610000000000000032e-04
-8.090000000000000403e-04
-8.180000000000000422e-04
-8.610000000000000032e-04
-8.700000000000000051e-04
-8.210000000000000067e-04
-7.810000000000000102e-04
-7.960000000000000495e-04
-8.369999999999999619e-04
-8.400000000000000348e-04
-7.900000000000000121e-04
-7.560000000000000530e-04
-7.770000000000000214e-04
-8.220000000000000310e-04
-8.260000000000000198e-04
-7.810000000000000102e-04
-7.370000000000000249e-04
-7.550000000000000287e-04
-8.009999999999999542e-04
-8.170000000000000179e-04
-7.900000000000000121e-04
-7.649999999999999465e-04
-8.000000000000000383e-04
-8.679999999999999565e-04
-8.999999999999999754e-04
-8.800000000000000313e-04
-8.559999999999999901e-04
-8.930000000000000221e-04
-9.569999999999999514e-04
-9.810000000000001011e-04
-9.529999999999999626e-04
-9.290000000000000297e-04
-9.550000000000000112e-04
-1.010000000000000047e-03
-1.028000000000000051e-03
-9.909999999999999105e-04
-9.550000000000000112e-04
-9.770000000000000039e-04
-1.026000000000000002e-03
-1.039999999999999909e-03
-9.990000000000001049e-04
-9.659999999999999533e-04
-9.810000000000001011e-04
-1.026999999999999918e-03
-1.036000000000000029e-03
-9.920000000000000432e-04
-9.550000000000000112e-04
-9.770000000000000039e-04
-1.028999999999999967e-03
-1.038999999999999993e-03
-1.000000000000000021e-03
-9.610000000000000486e-04
-9.770000000000000039e-04
-1.023999999999999954e-03
-1.033000000000000064e-03
-9.940000000000000918e-04
-9.569999999999999514e-04
-9.730000000000000151e-04
-1.016999999999999892e-03
-1.026000000000000002e-03
-9.870000000000000301e-04
-9.560000000000000355e-04
-9.810000000000001011e-04
-1.028999999999999967e-03
-1.041000000000000042e-03
-1.000000000000000021e-03
-9.680000000000000019e-04
-9.879999999999999460e-04
-1.038999999999999993e-03
-1.051000000000000068e-03
-1.007999999999999998e-03
-9.719999999999999907e-04
-9.970000000000000563e-04
-1.051000000000000068e-03
-1.062000000000000010e-03
-1.021999999999999905e-03
-9.829999999999999329e-04
-1.005000000000000034e-03
-1.056999999999999997e-03
-1.069999999999999988e-03
-1.033999999999999980e-03
-9.859999999999998974e-04
-1.008999999999999914e-03
-1.059000000000000045e-03
-1.064999999999999974e-03
-1.026999999999999918e-03
-9.909999999999999105e-04
-1.007999999999999998e-03
-1.054999999999999948e-03
-1.067999999999999939e-03
-1.026999999999999918e-03
-9.940000000000000918e-04
-1.010999999999999963e-03
-1.056999999999999997e-03
-1.069999999999999988e-03
-1.030000000000000100e-03
-9.920000000000000432e-04
-1.013000000000000012e-03
-1.061000000000000094e-03
-1.069000000000000072e-03
-1.023000000000000038e-03
-9.870000000000000301e-04
-1.010000000000000047e-03
-1.057999999999999913e-03
-1.066000000000000107e-03
-1.021999999999999905e-03
-9.840000000000000656e-04
-1.007999999999999998e-03
-1.049999999999999935e-03
-1.054000000000000032e-03
-1.002999999999999985e-03
-9.510000000000000224e-04
-9.659999999999999533e-04
-1.005999999999999950e-03
-9.959999999999999236e-04
-9.380000000000000317e-04
-8.970000000000000109e-04
-9.280000000000000054e-04
-9.779999999999999197e-04
-9.799999999999999684e-04
-9.200000000000000278e-04
-8.610000000000000032e-04
-8.750000000000000182e-04
-9.169999999999999549e-04
-9.449999999999999850e-04
-9.160000000000000390e-04
-8.800000000000000313e-04
-9.129999999999999661e-04
-9.810000000000001011e-04
-9.940000000000000918e-04
-9.499999999999999981e-04
-9.210000000000000521e-04
-9.569999999999999514e-04
-1.026999999999999918e-03
-1.039999999999999909e-03
-9.979999999999999722e-04
-9.659999999999999533e-04
-9.879999999999999460e-04
-1.036000000000000029e-03
-1.046999999999999971e-03
-1.000999999999999937e-03
-9.659999999999999533e-04
-9.859999999999998974e-04
-1.034999999999999896e-03
-1.041000000000000042e-03
-9.979999999999999722e-04
-9.579999999999999757e-04
-9.810000000000001011e-04
-1.026000000000000002e-03
-1.031000000000000015e-03
-9.719999999999999907e-04
-9.460000000000000093e-04
-1.013999999999999927e-03
-1.090999999999999956e-03
-1.110000000000000092e-03
-1.007999999999999998e-03
-8.059999999999999673e-04
-5.079999999999999880e-04
-2.410000000000000033e-04
-1.050000000000000044e-04
1.150000000000000035e-04
2.320000000000000014e-04
1.699999999999999987e-05
-3.269999999999999795e-04
-5.860000000000000408e-04
-7.609999999999999577e-04
-8.729999999999999696e-04
-9.409999999999999962e-04
-9.680000000000000019e-04
-9.499999999999999981e-04
-8.949999999999999623e-04
-8.620000000000000275e-04
-8.919999999999999978e-04
-9.409999999999999962e-04
-9.489999999999999738e-04
-9.039999999999999642e-04
-8.670000000000000406e-04
-8.859999999999999603e-04
-9.359999999999999831e-04
-9.460000000000000093e-04
-8.930000000000000221e-04
-8.540000000000000499e-04
-8.790000000000000070e-04
-9.280000000000000054e-04
-9.340000000000000429e-04
-8.859999999999999603e-04
-8.469999999999999881e-04
-8.700000000000000051e-04
-9.200000000000000278e-04
-9.210000000000000521e-04
-8.720000000000000537e-04
-8.339999999999999974e-04
-8.559999999999999901e-04
-9.009999999999999997e-04
-9.049999999999999885e-04
-8.440000000000000236e-04
-8.069999999999999916e-04
-8.319999999999999488e-04
-8.760000000000000425e-04
-8.809999999999999472e-04
-8.289999999999999843e-04
-7.860000000000000233e-04
-8.050000000000000515e-04
-8.509999999999999769e-04
-8.530000000000000256e-04
-7.969999999999999654e-04
-7.560000000000000530e-04
-7.759999999999999971e-04
-8.229999999999999469e-04
-8.279999999999999600e-04
-7.669999999999999951e-04
-7.169999999999999724e-04
-7.410000000000000137e-04
-7.870000000000000476e-04
-7.910000000000000364e-04
-7.389999999999999651e-04
-6.980000000000000527e-04
-7.209999999999999612e-04
-7.680000000000000195e-04
-7.749999999999999728e-04
-7.240000000000000342e-04
-6.880000000000000265e-04
-7.110000000000000434e-04
-7.590000000000000175e-04
-7.680000000000000195e-04
-7.230000000000000098e-04
-7.010000000000000172e-04
-7.380000000000000492e-04
-8.109999999999999805e-04
-8.339999999999999974e-04
-8.069999999999999916e-04
-7.879999999999999635e-04
-8.319999999999999488e-04
-9.020000000000000240e-04
-9.219999999999999680e-04
-8.869999999999999846e-04
-8.639999999999999677e-04
-8.989999999999999511e-04
-9.560000000000000355e-04
-9.690000000000000262e-04
-9.200000000000000278e-04
-8.869999999999999846e-04
-9.169999999999999549e-04
-9.709999999999999664e-04
-9.840000000000000656e-04
-9.309999999999999699e-04
-8.980000000000000352e-04
-9.190000000000000035e-04
-9.700000000000000505e-04
-9.770000000000000039e-04
-9.259999999999999568e-04
-8.899999999999999491e-04
-9.139999999999999904e-04
-9.610000000000000486e-04
-9.700000000000000505e-04
-9.250000000000000409e-04
-8.869999999999999846e-04
-9.100000000000000016e-04
-9.590000000000000000e-04
-9.659999999999999533e-04
-9.179999999999999792e-04
-8.880000000000000089e-04
-9.100000000000000016e-04
-9.600000000000000243e-04
-9.650000000000000374e-04
-9.179999999999999792e-04
-8.829999999999999958e-04
-9.089999999999999773e-04
-9.600000000000000243e-04
-9.650000000000000374e-04
-9.190000000000000035e-04
-8.850000000000000444e-04
-9.120000000000000502e-04
-9.659999999999999533e-04
-9.709999999999999664e-04
-9.240000000000000166e-04
-8.909999999999999734e-04
-9.200000000000000278e-04
-9.709999999999999664e-04
-9.759999999999999796e-04
-9.280000000000000054e-04
-8.930000000000000221e-04
-9.259999999999999568e-04
-9.779999999999999197e-04
-9.820000000000000170e-04
-9.340000000000000429e-04
-8.999999999999999754e-04
-9.269999999999999811e-04
-9.690000000000000262e-04
-9.730000000000000151e-04
-9.280000000000000054e-04
-8.980000000000000352e-04
-9.259999999999999568e-04
-9.749999999999999552e-04
-9.840000000000000656e-04
-9.359999999999999831e-04
-9.020000000000000240e-04
-9.330000000000000186e-04
-9.770000000000000039e-04
-9.829999999999999329e-04
-9.420000000000000205e-04
-9.030000000000000483e-04
-9.259999999999999568e-04
-9.790000000000000525e-04
-9.829999999999999329e-04
-9.370000000000000074e-04
-9.020000000000000240e-04
-9.300000000000000541e-04
-9.770000000000000039e-04
-9.829999999999999329e-04
-9.340000000000000429e-04
-9.030000000000000483e-04
-9.280000000000000054e-04
-9.749999999999999552e-04
-9.810000000000001011e-04
-9.340000000000000429e-04
-8.999999999999999754e-04
-9.259999999999999568e-04
-9.709999999999999664e-04
-9.740000000000000394e-04
-9.229999999999999923e-04
-8.779999999999999827e-04
-8.899999999999999491e-04
-9.259999999999999568e-04
-9.229999999999999923e-04
-8.679999999999999565e-04
-8.329999999999999731e-04
-8.679999999999999565e-04
-9.169999999999999549e-04
-9.139999999999999904e-04
-8.480000000000000124e-04
-8.009999999999999542e-04
-8.239999999999999712e-04
-8.750000000000000182e-04
-8.959999999999999866e-04
-8.620000000000000275e-04
-8.260000000000000198e-04
-8.620000000000000275e-04
-9.269999999999999811e-04
-9.389999999999999476e-04
-8.970000000000000109e-04
-8.679999999999999565e-04
-9.110000000000000259e-04
-9.829999999999999329e-04
-9.920000000000000432e-04
-9.479999999999999495e-04
-9.179999999999999792e-04
-9.460000000000000093e-04
-1.000999999999999937e-03
-1.005000000000000034e-03
-9.489999999999999738e-04
-9.190000000000000035e-04
-9.479999999999999495e-04
-9.979999999999999722e-04
-1.000000000000000021e-03
-9.510000000000000224e-04
-9.139999999999999904e-04
-9.420000000000000205e-04
-9.959999999999999236e-04
-9.899999999999999946e-04
-9.340000000000000429e-04
-9.250000000000000409e-04
-9.959999999999999236e-04
-1.056999999999999997e-03
-1.052999999999999900e-03
-9.280000000000000054e-04
-6.890000000000000508e-04
-3.780000000000000265e-04
-1.450000000000000009e-04
-3.000000000000000076e-06
2.220000000000000022e-04
2.719999999999999979e-04
-1.500000000000000038e-05
-3.460000000000000076e-04
-6.160000000000000111e-04
-7.770000000000000214e-04
-8.360000000000000460e-04
-8.750000000000000182e-04
-9.070000000000000371e-04
-8.959999999999999866e-04
-8.480000000000000124e-04
-8.310000000000000329e-04
-8.670000000000000406e-04
-9.200000000000000278e-04
-9.240000000000000166e-04
-8.739999999999999939e-04
-8.450000000000000479e-04
-8.729999999999999696e-04
-9.179999999999999792e-04
-9.169999999999999549e-04
-8.679999999999999565e-04
-8.329999999999999731e-04
-8.589999999999999546e-04
-9.049999999999999885e-04
-9.060000000000000128e-04
-8.559999999999999901e-04
-8.199999999999999824e-04
-8.480000000000000124e-04
-8.930000000000000221e-04
-8.919999999999999978e-04
-8.400000000000000348e-04
-8.030000000000000028e-04
-8.289999999999999843e-04
-8.729999999999999696e-04
-8.790000000000000070e-04
-8.289999999999999843e-04
-7.910000000000000364e-04
-8.130000000000000291e-04
-8.589999999999999546e-04
-8.549999999999999658e-04
-8.050000000000000515e-04
-7.680000000000000195e-04
-7.889999999999999878e-04
-8.350000000000000217e-04
-8.339999999999999974e-04
-7.739999999999999485e-04
-7.330000000000000361e-04
-7.619999999999999820e-04
-8.080000000000000160e-04
-8.080000000000000160e-04
-7.510000000000000399e-04
-7.129999999999999836e-04
-7.360000000000000006e-04
-7.810000000000000102e-04
-7.799999999999999859e-04
-7.280000000000000230e-04
-6.930000000000000396e-04
-7.129999999999999836e-04
-7.600000000000000418e-04
-7.619999999999999820e-04
-7.089999999999999948e-04
-6.700000000000000226e-04
-6.999999999999999929e-04
-7.510000000000000399e-04
-7.560000000000000530e-04
-7.110000000000000434e-04
-6.870000000000000022e-04
-7.370000000000000249e-04
-8.059999999999999673e-04
-8.260000000000000198e-04
-7.969999999999999654e-04
-7.780000000000000457e-04
-8.260000000000000198e-04
-8.909999999999999734e-04
-9.060000000000000128e-04
-8.700000000000000051e-04
-8.490000000000000368e-04
-8.869999999999999846e-04
-9.439999999999999607e-04
-9.510000000000000224e-04
-9.070000000000000371e-04
-8.829999999999999958e-04
-9.079999999999999530e-04
-9.629999999999999888e-04
-9.690000000000000262e-04
-9.150000000000000147e-04
-8.809999999999999472e-04
-9.120000000000000502e-04
-9.600000000000000243e-04
-9.619999999999999645e-04
-9.079999999999999530e-04
-8.739999999999999939e-04
-9.060000000000000128e-04
-9.529999999999999626e-04
-9.529999999999999626e-04
-9.079999999999999530e-04
-8.779999999999999827e-04
-9.049999999999999885e-04
-9.510000000000000224e-04
-9.499999999999999981e-04
-9.020000000000000240e-04
-8.710000000000000294e-04
-8.970000000000000109e-04
-9.460000000000000093e-04
-9.479999999999999495e-04
-8.989999999999999511e-04
-8.670000000000000406e-04
-8.980000000000000352e-04
-9.470000000000000336e-04
-9.499999999999999981e-04
-9.030000000000000483e-04
-8.679999999999999565e-04
-8.989999999999999511e-04
-9.489999999999999738e-04
-9.520000000000000467e-04
-8.980000000000000352e-04
-8.660000000000000163e-04
-8.999999999999999754e-04
-9.560000000000000355e-04
-9.560000000000000355e-04
-9.070000000000000371e-04
-8.720000000000000537e-04
-9.030000000000000483e-04
-9.539999999999999869e-04
-9.520000000000000467e-04
-9.049999999999999885e-04
-8.779999999999999827e-04
-9.100000000000000016e-04
-9.550000000000000112e-04
-9.579999999999999757e-04
-9.100000000000000016e-04
-8.790000000000000070e-04
-9.039999999999999642e-04
-9.510000000000000224e-04
-9.550000000000000112e-04
-9.070000000000000371e-04
-8.739999999999999939e-04
-9.049999999999999885e-04
-9.529999999999999626e-04
-9.539999999999999869e-04
-9.089999999999999773e-04
-8.739999999999999939e-04
-9.060000000000000128e-04
-9.529999999999999626e-04
-9.539999999999999869e-04
-9.089999999999999773e-04
-8.779999999999999827e-04
-9.030000000000000483e-04
-9.569999999999999514e-04
-9.610000000000000486e-04
-9.089999999999999773e-04
-8.769999999999999584e-04
-9.079999999999999530e-04
-9.510000000000000224e-04
-9.539999999999999869e-04
-9.020000000000000240e-04
-8.679999999999999565e-04
-8.970000000000000109e-04
-9.460000000000000093e-04
-9.430000000000000448e-04
-8.880000000000000089e-04
-8.450000000000000479e-04
-8.660000000000000163e-04
-8.980000000000000352e-04
-8.909999999999999734e-04
-8.390000000000000105e-04
-8.180000000000000422e-04
-8.480000000000000124e-04
-8.819999999999999715e-04
-8.610000000000000032e-04
-8.009999999999999542e-04
-7.640000000000000306e-04
-8.040000000000000271e-04
-8.760000000000000425e-04
-8.790000000000000070e-04
-8.300000000000000086e-04
-8.170000000000000179e-04
-8.549999999999999658e-04
-9.070000000000000371e-04
-9.089999999999999773e-04
-8.720000000000000537e-04
-8.580000000000000387e-04
-9.120000000000000502e-04
-9.650000000000000374e-04
-9.659999999999999533e-04
-9.190000000000000035e-04
-8.869999999999999846e-04
-9.200000000000000278e-04
-9.700000000000000505e-04
-9.680000000000000019e-04
-9.240000000000000166e-04
-8.909999999999999734e-04
-9.200000000000000278e-04
-9.709999999999999664e-04
-9.680000000000000019e-04
-9.129999999999999661e-04
-8.869999999999999846e-04
-9.129999999999999661e-04
-9.550000000000000112e-04
-9.499999999999999981e-04
-9.309999999999999699e-04
-9.380000000000000317e-04
-9.840000000000000656e-04
-1.028000000000000051e-03
-9.479999999999999495e-04
-6.949999999999999798e-04
-3.179999999999999776e-04
-8.200000000000000095e-05
1.099999999999999971e-05
1.869999999999999917e-04
2.280000000000000126e-04
0.000000000000000000e+00
-2.990000000000000036e-04
-6.080000000000000335e-04
-8.050000000000000515e-04
-8.440000000000000236e-04
-8.159999999999999936e-04
-8.329999999999999731e-04
-8.639999999999999677e-04
-8.689999999999999808e-04
-8.289999999999999843e-04
-8.040000000000000271e-04
-8.390000000000000105e-04
-8.880000000000000089e-04
-8.859999999999999603e-04
-8.369999999999999619e-04
-8.069999999999999916e-04
-8.390000000000000105e-04
-8.869999999999999846e-04
-8.869999999999999846e-04
-8.310000000000000329e-04
-7.960000000000000495e-04
-8.239999999999999712e-04
-8.700000000000000051e-04
-8.700000000000000051e-04
-8.210000000000000067e-04
-7.839999999999999747e-04
-8.109999999999999805e-04
-8.570000000000000144e-04
-8.509999999999999769e-04
-8.009999999999999542e-04
-7.659999999999999708e-04
-8.000000000000000383e-04
-8.429999999999999993e-04
-8.400000000000000348e-04
-7.839999999999999747e-04
-7.500000000000000156e-04
-7.759999999999999971e-04
-8.189999999999999581e-04
-8.109999999999999805e-04
-7.600000000000000418e-04
-7.259999999999999743e-04
-7.560000000000000530e-04
-7.929999999999999766e-04
-7.839999999999999747e-04
-7.320000000000000118e-04
-6.970000000000000284e-04
-7.249999999999999500e-04
-7.690000000000000438e-04
-7.630000000000000063e-04
-7.069999999999999462e-04
-6.660000000000000338e-04
-6.970000000000000284e-04
-7.380000000000000492e-04
-7.330000000000000361e-04
-6.809999999999999647e-04
-6.530000000000000431e-04
-6.790000000000000245e-04
-7.230000000000000098e-04
-7.159999999999999481e-04
-6.629999999999999609e-04
-6.319999999999999663e-04
-6.629999999999999609e-04
-7.150000000000000322e-04
-7.179999999999999967e-04
-6.830000000000000134e-04
-6.679999999999999740e-04
-7.190000000000000210e-04
-7.860000000000000233e-04
-8.059999999999999673e-04
-7.730000000000000326e-04
-7.609999999999999577e-04
-8.090000000000000403e-04
-8.710000000000000294e-04
-8.859999999999999603e-04
-8.419999999999999750e-04
-8.199999999999999824e-04
-8.649999999999999920e-04
-9.150000000000000147e-04
-9.150000000000000147e-04
-8.660000000000000163e-04
-8.419999999999999750e-04
-8.750000000000000182e-04
-9.240000000000000166e-04
-9.250000000000000409e-04
-8.750000000000000182e-04
-8.419999999999999750e-04
-8.779999999999999827e-04
-9.229999999999999923e-04
-9.219999999999999680e-04
-8.670000000000000406e-04
-8.360000000000000460e-04
-8.689999999999999808e-04
-9.190000000000000035e-04
-9.129999999999999661e-04
-8.599999999999999789e-04
-8.270000000000000441e-04
-8.660000000000000163e-04
-9.129999999999999661e-04
-9.039999999999999642e-04
-8.520000000000000013e-04
-8.180000000000000422e-04
-8.530000000000000256e-04
-8.989999999999999511e-04
-8.980000000000000352e-04
-8.490000000000000368e-04
-8.210000000000000067e-04
-8.530000000000000256e-04
-8.989999999999999511e-04
-8.980000000000000352e-04
-8.459999999999999638e-04
-8.170000000000000179e-04
-8.540000000000000499e-04
-9.049999999999999885e-04
-9.020000000000000240e-04
-8.509999999999999769e-04
-8.210000000000000067e-04
-8.520000000000000013e-04
-9.079999999999999530e-04
-9.060000000000000128e-04
-8.589999999999999546e-04
-8.339999999999999974e-04
-8.710000000000000294e-04
-9.190000000000000035e-04
-9.190000000000000035e-04
-8.639999999999999677e-04
-8.329999999999999731e-04
-8.670000000000000406e-04
-9.179999999999999792e-04
-9.139999999999999904e-04
-8.689999999999999808e-04
-8.429999999999999993e-04
-8.790000000000000070e-04
-9.290000000000000297e-04
-9.210000000000000521e-04
-8.700000000000000051e-04
-8.440000000000000236e-04
-8.769999999999999584e-04
-9.309999999999999699e-04
-9.250000000000000409e-04
-8.729999999999999696e-04
-8.440000000000000236e-04
-8.790000000000000070e-04
-9.250000000000000409e-04
-9.210000000000000521e-04
-8.739999999999999939e-04
-8.419999999999999750e-04
-8.769999999999999584e-04
-9.219999999999999680e-04
-9.160000000000000390e-04
-8.689999999999999808e-04
-8.429999999999999993e-04
-8.790000000000000070e-04
-9.250000000000000409e-04
-9.219999999999999680e-04
-8.710000000000000294e-04
-8.440000000000000236e-04
-8.750000000000000182e-04
-9.250000000000000409e-04
-9.210000000000000521e-04
-8.649999999999999920e-04
-8.409999999999999507e-04
-8.790000000000000070e-04
-9.219999999999999680e-04
-9.160000000000000390e-04
-8.679999999999999565e-04
-8.440000000000000236e-04
-8.760000000000000425e-04
-9.169999999999999549e-04
-9.129999999999999661e-04
-8.549999999999999658e-04
-8.140000000000000534e-04
-8.400000000000000348e-04
-8.790000000000000070e-04
-8.649999999999999920e-04
-8.180000000000000422e-04
-7.910000000000000364e-04
-8.210000000000000067e-04
-8.549999999999999658e-04
-8.289999999999999843e-04
-7.709999999999999840e-04
-7.399999999999999894e-04
-7.950000000000000252e-04
-8.620000000000000275e-04
-8.570000000000000144e-04
-8.170000000000000179e-04
-7.990000000000000140e-04
-8.450000000000000479e-04
-8.919999999999999978e-04
-8.949999999999999623e-04
-8.580000000000000387e-04
-8.480000000000000124e-04
-8.899999999999999491e-04
-9.420000000000000205e-04
-9.460000000000000093e-04
-8.999999999999999754e-04
-8.720000000000000537e-04
-9.129999999999999661e-04
-9.569999999999999514e-04
-9.529999999999999626e-04
-8.999999999999999754e-04
-8.729999999999999696e-04
-9.129999999999999661e-04
-9.610000000000000486e-04
-9.489999999999999738e-04
-8.980000000000000352e-04
-8.720000000000000537e-04
-9.129999999999999661e-04
-9.520000000000000467e-04
-9.460000000000000093e-04
-9.319999999999999942e-04
-9.389999999999999476e-04
-9.879999999999999460e-04
-1.012000000000000096e-03
-8.840000000000000201e-04
-5.810000000000000277e-04
-1.979999999999999881e-04
-3.399999999999999973e-05
7.799999999999999859e-05
2.290000000000000098e-04
1.689999999999999879e-04
-9.100000000000000287e-05
-3.840000000000000097e-04
-6.809999999999999647e-04
-8.429999999999999993e-04
-8.559999999999999901e-04
-8.189999999999999581e-04
-8.319999999999999488e-04
-8.720000000000000537e-04
-8.760000000000000425e-04
-8.310000000000000329e-04
-8.130000000000000291e-04
-8.480000000000000124e-04
-8.980000000000000352e-04
-8.930000000000000221e-04
-8.409999999999999507e-04
-8.130000000000000291e-04
-8.520000000000000013e-04
-8.999999999999999754e-04
-8.859999999999999603e-04
-8.339999999999999974e-04
-8.099999999999999561e-04
-8.459999999999999638e-04
-8.899999999999999491e-04
-8.760000000000000425e-04
-8.189999999999999581e-04
-7.900000000000000121e-04
-8.249999999999999955e-04
-8.750000000000000182e-04
-8.630000000000000518e-04
-8.080000000000000160e-04
-7.780000000000000457e-04
-8.140000000000000534e-04
-8.559999999999999901e-04
-8.480000000000000124e-04
-7.940000000000000009e-04
-7.649999999999999465e-04
-8.019999999999999785e-04
-8.409999999999999507e-04
-8.319999999999999488e-04
-7.749999999999999728e-04
-7.450000000000000025e-04
-7.759999999999999971e-04
-8.220000000000000310e-04
-8.130000000000000291e-04
-7.579999999999999932e-04
-7.240000000000000342e-04
-7.519999999999999558e-04
-7.929999999999999766e-04
-7.829999999999999504e-04
-7.269999999999999987e-04
-6.980000000000000527e-04
-7.330000000000000361e-04
-7.749999999999999728e-04
-7.659999999999999708e-04
-7.100000000000000191e-04
-6.759999999999999516e-04
-7.140000000000000079e-04
-7.579999999999999932e-04
-7.450000000000000025e-04
-6.909999999999999910e-04
-6.660000000000000338e-04
-7.029999999999999574e-04
-7.560000000000000530e-04
-7.569999999999999689e-04
-7.179999999999999967e-04
-7.050000000000000060e-04
-7.600000000000000418e-04
-8.239999999999999712e-04
-8.360000000000000460e-04
-8.080000000000000160e-04
-7.990000000000000140e-04
-8.459999999999999638e-04
-9.100000000000000016e-04
-9.129999999999999661e-04
-8.720000000000000537e-04
-8.549999999999999658e-04
-8.959999999999999866e-04
-9.499999999999999981e-04
-9.499999999999999981e-04
-9.039999999999999642e-04
-8.800000000000000313e-04
-9.229999999999999923e-04
-9.700000000000000505e-04
-9.629999999999999888e-04
-9.169999999999999549e-04
-8.840000000000000201e-04
-9.150000000000000147e-04
-9.590000000000000000e-04
-9.529999999999999626e-04
-8.999999999999999754e-04
-8.729999999999999696e-04
-9.089999999999999773e-04
-9.520000000000000467e-04
-9.460000000000000093e-04
-8.959999999999999866e-04
-8.710000000000000294e-04
-9.079999999999999530e-04
-9.510000000000000224e-04
-9.449999999999999850e-04
-8.949999999999999623e-04
-8.670000000000000406e-04
-8.999999999999999754e-04
-9.510000000000000224e-04
-9.370000000000000074e-04
-8.880000000000000089e-04
-8.660000000000000163e-04
-8.989999999999999511e-04
-9.430000000000000448e-04
-9.349999999999999587e-04
-8.840000000000000201e-04
-8.570000000000000144e-04
-8.949999999999999623e-04
-9.479999999999999495e-04
-9.449999999999999850e-04
-8.919999999999999978e-04
-8.689999999999999808e-04
-9.070000000000000371e-04
-9.539999999999999869e-04
-9.560000000000000355e-04
-8.989999999999999511e-04
-8.700000000000000051e-04
-9.190000000000000035e-04
-9.600000000000000243e-04
-9.489999999999999738e-04
-9.060000000000000128e-04
-8.829999999999999958e-04
-9.210000000000000521e-04
-9.629999999999999888e-04
-9.560000000000000355e-04
-9.049999999999999885e-04
-8.790000000000000070e-04
-9.160000000000000390e-04
-9.640000000000000131e-04
-9.520000000000000467e-04
-8.999999999999999754e-04
-8.779999999999999827e-04
-9.229999999999999923e-04
-9.700000000000000505e-04
-9.569999999999999514e-04
-9.049999999999999885e-04
-8.829999999999999958e-04
-9.160000000000000390e-04
-9.640000000000000131e-04
-9.610000000000000486e-04
-9.129999999999999661e-04
-8.880000000000000089e-04
-9.210000000000000521e-04
-9.590000000000000000e-04
-9.520000000000000467e-04
-9.060000000000000128e-04
-8.840000000000000201e-04
-9.240000000000000166e-04
-9.680000000000000019e-04
-9.489999999999999738e-04
-8.989999999999999511e-04
-8.769999999999999584e-04
-9.129999999999999661e-04
-9.610000000000000486e-04
-9.529999999999999626e-04
-9.030000000000000483e-04
-8.779999999999999827e-04
-9.150000000000000147e-04
-9.539999999999999869e-04
-9.409999999999999962e-04
-8.809999999999999472e-04
-8.499999999999999526e-04
-8.819999999999999715e-04
-9.089999999999999773e-04
-8.930000000000000221e-04
-8.409999999999999507e-04
-8.189999999999999581e-04
-8.540000000000000499e-04
-8.890000000000000333e-04
-8.620000000000000275e-04
-7.940000000000000009e-04
-7.569999999999999689e-04
-8.030000000000000028e-04
-8.710000000000000294e-04
-8.739999999999999939e-04
-8.270000000000000441e-04
-8.189999999999999581e-04
-8.689999999999999808e-04
-9.150000000000000147e-04
-9.060000000000000128e-04
-8.649999999999999920e-04
-8.700000000000000051e-04
-9.190000000000000035e-04
-9.669999999999999776e-04
-9.610000000000000486e-04
-9.129999999999999661e-04
-8.899999999999999491e-04
-9.280000000000000054e-04
-9.730000000000000151e-04
-9.650000000000000374e-04
-9.150000000000000147e-04
-8.880000000000000089e-04
-9.240000000000000166e-04
-9.659999999999999533e-04
-9.560000000000000355e-04
-9.049999999999999885e-04
-8.829999999999999958e-04
-9.229999999999999923e-04
-9.600000000000000243e-04
-9.449999999999999850e-04
-9.309999999999999699e-04
-9.349999999999999587e-04
-9.859999999999998974e-04
-1.015999999999999976e-03
-8.980000000000000352e-04
-6.040000000000000447e-04
-2.239999999999999966e-04
-7.299999999999999903e-05
3.000000000000000076e-05
1.820000000000000057e-04
1.569999999999999944e-04
-8.799999999999999771e-05
-3.840000000000000097e-04
-6.549999999999999833e-04
-8.450000000000000479e-04
-8.909999999999999734e-04
-8.599999999999999789e-04
-8.710000000000000294e-04
-8.909999999999999734e-04
-8.769999999999999584e-04
-8.379999999999999862e-04
-8.210000000000000067e-04
-8.610000000000000032e-04
-9.060000000000000128e-04
-8.919999999999999978e-04
-8.440000000000000236e-04
-8.210000000000000067e-04
-8.580000000000000387e-04
-8.999999999999999754e-04
-8.859999999999999603e-04
-8.279999999999999600e-04
-8.030000000000000028e-04
-8.419999999999999750e-04
-8.829999999999999958e-04
-8.710000000000000294e-04
-8.239999999999999712e-04
-8.009999999999999542e-04
-8.400000000000000348e-04
-8.809999999999999472e-04
-8.630000000000000518e-04
-8.099999999999999561e-04
-7.849999999999999990e-04
-8.249999999999999955e-04
-8.720000000000000537e-04
-8.559999999999999901e-04
-7.960000000000000495e-04
-7.739999999999999485e-04
-8.040000000000000271e-04
-8.459999999999999638e-04
-8.270000000000000441e-04
-7.720000000000000083e-04
-7.460000000000000268e-04
-7.780000000000000457e-04
-8.170000000000000179e-04
-8.030000000000000028e-04
-7.420000000000000380e-04
-7.140000000000000079e-04
-7.519999999999999558e-04
-7.900000000000000121e-04
-7.730000000000000326e-04
-7.129999999999999836e-04
-6.880000000000000265e-04
-7.249999999999999500e-04
-7.619999999999999820e-04
-7.420000000000000380e-04
-6.880000000000000265e-04
-6.639999999999999852e-04
-7.029999999999999574e-04
-7.439999999999999782e-04
-7.259999999999999743e-04
-6.729999999999999871e-04
-6.470000000000000057e-04
-6.880000000000000265e-04
-7.349999999999999763e-04
-7.370000000000000249e-04
-7.020000000000000415e-04
-6.980000000000000527e-04
-7.560000000000000530e-04
-8.140000000000000534e-04
-8.210000000000000067e-04
-7.829999999999999504e-04
-7.780000000000000457e-04
-8.390000000000000105e-04
-9.009999999999999997e-04
-8.970000000000000109e-04
-8.540000000000000499e-04
-8.360000000000000460e-04
-8.880000000000000089e-04
-9.389999999999999476e-04
-9.280000000000000054e-04
-8.829999999999999958e-04
-8.599999999999999789e-04
-8.919999999999999978e-04
-9.420000000000000205e-04
-9.370000000000000074e-04
-8.859999999999999603e-04
-8.660000000000000163e-04
-9.020000000000000240e-04
-9.420000000000000205e-04
-9.259999999999999568e-04
-8.710000000000000294e-04
-8.469999999999999881e-04
-8.909999999999999734e-04
-9.370000000000000074e-04
-9.319999999999999942e-04
-8.739999999999999939e-04
-8.450000000000000479e-04
-8.859999999999999603e-04
-9.290000000000000297e-04
-9.160000000000000390e-04
-8.599999999999999789e-04
-8.419999999999999750e-04
-8.840000000000000201e-04
-9.300000000000000541e-04
-9.179999999999999792e-04
-8.620000000000000275e-04
-8.400000000000000348e-04
-8.800000000000000313e-04
-9.240000000000000166e-04
-9.150000000000000147e-04
-8.649999999999999920e-04
-8.499999999999999526e-04
-8.819999999999999715e-04
-9.290000000000000297e-04
-9.190000000000000035e-04
-8.679999999999999565e-04
-8.509999999999999769e-04
-8.930000000000000221e-04
-9.370000000000000074e-04
-9.269999999999999811e-04
-8.760000000000000425e-04
-8.549999999999999658e-04
-8.930000000000000221e-04
-9.389999999999999476e-04
-9.330000000000000186e-04
-8.840000000000000201e-04
-8.630000000000000518e-04
-9.020000000000000240e-04
-9.409999999999999962e-04
-9.280000000000000054e-04
-8.779999999999999827e-04
-8.610000000000000032e-04
-9.009999999999999997e-04
-9.409999999999999962e-04
-9.349999999999999587e-04
-8.829999999999999958e-04
-8.589999999999999546e-04
-9.020000000000000240e-04
-9.520000000000000467e-04
-9.340000000000000429e-04
-8.819999999999999715e-04
-8.639999999999999677e-04
-9.009999999999999997e-04
-9.430000000000000448e-04
-9.330000000000000186e-04
-8.819999999999999715e-04
-8.599999999999999789e-04
-9.020000000000000240e-04
-9.479999999999999495e-04
-9.340000000000000429e-04
-8.760000000000000425e-04
-8.509999999999999769e-04
-8.859999999999999603e-04
-9.219999999999999680e-04
-8.949999999999999623e-04
-8.310000000000000329e-04
-7.979999999999999897e-04
-8.319999999999999488e-04
-8.850000000000000444e-04
-8.809999999999999472e-04
-8.210000000000000067e-04
-7.810000000000000102e-04
-8.099999999999999561e-04
-8.400000000000000348e-04
-8.180000000000000422e-04
-7.829999999999999504e-04
-7.879999999999999635e-04
-8.319999999999999488e-04
-8.850000000000000444e-04
-8.880000000000000089e-04
-8.409999999999999507e-04
-8.220000000000000310e-04
-8.710000000000000294e-04
-9.259999999999999568e-04
-9.349999999999999587e-04
-8.930000000000000221e-04
-8.750000000000000182e-04
-9.210000000000000521e-04
-9.700000000000000505e-04
-9.579999999999999757e-04
-9.060000000000000128e-04
-8.869999999999999846e-04
-9.309999999999999699e-04
-9.719999999999999907e-04
-9.579999999999999757e-04
-9.049999999999999885e-04
-8.909999999999999734e-04
-9.290000000000000297e-04
-9.759999999999999796e-04
-9.569999999999999514e-04
-9.009999999999999997e-04
-8.679999999999999565e-04
-9.120000000000000502e-04
-1.000999999999999937e-03
-1.015999999999999976e-03
-9.790000000000000525e-04
-9.210000000000000521e-04
-8.149999999999999693e-04
-5.590000000000000351e-04
-2.059999999999999928e-04
-6.999999999999999895e-06
1.769999999999999926e-04
2.280000000000000126e-04
2.599999999999999840e-05
-2.489999999999999809e-04
-4.449999999999999746e-04
-6.480000000000000300e-04
-8.599999999999999789e-04
-9.590000000000000000e-04
-9.250000000000000409e-04
-8.480000000000000124e-04
-8.059999999999999673e-04
-8.509999999999999769e-04
-9.030000000000000483e-04
-8.899999999999999491e-04
-8.409999999999999507e-04
-8.239999999999999712e-04
-8.599999999999999789e-04
-8.970000000000000109e-04
-8.809999999999999472e-04
-8.249999999999999955e-04
-8.059999999999999673e-04
-8.450000000000000479e-04
-8.859999999999999603e-04
-8.700000000000000051e-04
-8.140000000000000534e-04
-7.940000000000000009e-04
-8.379999999999999862e-04
-8.750000000000000182e-04
-8.580000000000000387e-04
-8.030000000000000028e-04
-7.839999999999999747e-04
-8.220000000000000310e-04
-8.599999999999999789e-04
-8.429999999999999993e-04
-7.900000000000000121e-04
-7.690000000000000438e-04
-8.059999999999999673e-04
-8.469999999999999881e-04
-8.229999999999999469e-04
-7.669999999999999951e-04
-7.450000000000000025e-04
-7.820000000000000345e-04
-8.199999999999999824e-04
-8.009999999999999542e-04
-7.439999999999999782e-04
-7.150000000000000322e-04
-7.560000000000000530e-04
-7.940000000000000009e-04
-7.739999999999999485e-04
-7.110000000000000434e-04
-6.859999999999999779e-04
-7.219999999999999855e-04
-7.609999999999999577e-04
-7.399999999999999894e-04
-6.840000000000000377e-04
-6.629999999999999609e-04
-7.020000000000000415e-04
-7.399999999999999894e-04
-7.230000000000000098e-04
-6.679999999999999740e-04
-6.440000000000000412e-04
-6.809999999999999647e-04
-7.190000000000000210e-04
-7.039999999999999817e-04
-6.549999999999999833e-04
-6.430000000000000169e-04
-6.989999999999999686e-04
-7.600000000000000418e-04
-7.619999999999999820e-04
-7.269999999999999987e-04
-7.280000000000000230e-04
-7.900000000000000121e-04
-8.490000000000000368e-04
-8.509999999999999769e-04
-8.140000000000000534e-04
-8.099999999999999561e-04
-8.679999999999999565e-04
-9.150000000000000147e-04
-9.030000000000000483e-04
-8.559999999999999901e-04
-8.469999999999999881e-04
-8.959999999999999866e-04
-9.389999999999999476e-04
-9.229999999999999923e-04
-8.750000000000000182e-04
-8.620000000000000275e-04
-9.049999999999999885e-04
-9.420000000000000205e-04
-9.219999999999999680e-04
-8.729999999999999696e-04
-8.559999999999999901e-04
-8.980000000000000352e-04
-9.399999999999999719e-04
-9.219999999999999680e-04
-8.670000000000000406e-04
-8.480000000000000124e-04
-8.940000000000000464e-04
-9.300000000000000541e-04
-9.110000000000000259e-04
-8.540000000000000499e-04
-8.339999999999999974e-04
-8.809999999999999472e-04
-9.290000000000000297e-04
-9.110000000000000259e-04
-8.520000000000000013e-04
-8.339999999999999974e-04
-8.800000000000000313e-04
-9.240000000000000166e-04
-9.039999999999999642e-04
-8.469999999999999881e-04
-8.360000000000000460e-04
-8.829999999999999958e-04
-9.240000000000000166e-04
-9.060000000000000128e-04
-8.599999999999999789e-04
-8.440000000000000236e-04
-8.880000000000000089e-04
-9.280000000000000054e-04
-9.110000000000000259e-04
-8.630000000000000518e-04
-8.469999999999999881e-04
-8.930000000000000221e-04
-9.269999999999999811e-04
-9.129999999999999661e-04
-8.620000000000000275e-04
-8.469999999999999881e-04
-8.940000000000000464e-04
-9.340000000000000429e-04
-9.160000000000000390e-04
-8.639999999999999677e-04
-8.509999999999999769e-04
-8.980000000000000352e-04
-9.409999999999999962e-04
-9.200000000000000278e-04
-8.679999999999999565e-04
-8.549999999999999658e-04
-8.989999999999999511e-04
-9.370000000000000074e-04
-9.200000000000000278e-04
-8.689999999999999808e-04
-8.520000000000000013e-04
-8.970000000000000109e-04
-9.389999999999999476e-04
-9.250000000000000409e-04
-8.639999999999999677e-04
-8.469999999999999881e-04
-8.940000000000000464e-04
-9.340000000000000429e-04
-9.169999999999999549e-04
-8.649999999999999920e-04
-8.469999999999999881e-04
-8.919999999999999978e-04
-9.300000000000000541e-04
-9.079999999999999530e-04
-8.520000000000000013e-04
-8.180000000000000422e-04
-8.499999999999999526e-04
-8.790000000000000070e-04
-8.450000000000000479e-04
-7.839999999999999747e-04
-7.680000000000000195e-04
-8.310000000000000329e-04
-8.710000000000000294e-04
-8.390000000000000105e-04
-7.659999999999999708e-04
-7.389999999999999651e-04
-7.780000000000000457e-04
-8.289999999999999843e-04
-8.350000000000000217e-04
-7.900000000000000121e-04
-7.669999999999999951e-04
-8.270000000000000441e-04
-8.859999999999999603e-04
-8.739999999999999939e-04
-8.199999999999999824e-04
-8.130000000000000291e-04
-8.720000000000000537e-04
-9.309999999999999699e-04
-9.169999999999999549e-04
-8.679999999999999565e-04
-8.599999999999999789e-04
-9.089999999999999773e-04
-9.489999999999999738e-04
-9.269999999999999811e-04
-8.750000000000000182e-04
-8.649999999999999920e-04
-9.110000000000000259e-04
-9.520000000000000467e-04
-9.309999999999999699e-04
-8.790000000000000070e-04
-8.610000000000000032e-04
-9.030000000000000483e-04
-9.430000000000000448e-04
-9.179999999999999792e-04
-8.549999999999999658e-04
-8.630000000000000518e-04
-9.529999999999999626e-04
-1.013000000000000012e-03
-9.859999999999998974e-04
-8.589999999999999546e-04
-6.499999999999999702e-04
-3.559999999999999797e-04
-1.060000000000000016e-04
6.299999999999999990e-05
2.959999999999999849e-04
3.280000000000000038e-04
2.799999999999999958e-05
-2.970000000000000092e-04
-5.490000000000000088e-04
-7.029999999999999574e-04
-7.889999999999999878e-04
-8.469999999999999881e-04
-8.670000000000000406e-04
-8.350000000000000217e-04
-7.820000000000000345e-04
-7.789999999999999616e-04
-8.350000000000000217e-04
-8.800000000000000313e-04
-8.589999999999999546e-04
-8.069999999999999916e-04
-7.940000000000000009e-04
-8.429999999999999993e-04
-8.779999999999999827e-04
-8.570000000000000144e-04
-8.050000000000000515e-04
-7.870000000000000476e-04
-8.339999999999999974e-04
-8.670000000000000406e-04
-8.480000000000000124e-04
-7.979999999999999897e-04
-7.780000000000000457e-04
-8.199999999999999824e-04
-8.520000000000000013e-04
-8.339999999999999974e-04
-7.810000000000000102e-04
-7.649999999999999465e-04
-8.130000000000000291e-04
-8.480000000000000124e-04
-8.229999999999999469e-04
-7.649999999999999465e-04
-7.460000000000000268e-04
-7.870000000000000476e-04
-8.189999999999999581e-04
-7.940000000000000009e-04
-7.420000000000000380e-04
-7.259999999999999743e-04
-7.630000000000000063e-04
-7.950000000000000252e-04
-7.709999999999999840e-04
-7.150000000000000322e-04
-6.949999999999999798e-04
-7.339999999999999520e-04
-7.649999999999999465e-04
-7.429999999999999539e-04
-6.840000000000000377e-04
-6.700000000000000226e-04
-7.110000000000000434e-04
-7.389999999999999651e-04
-7.140000000000000079e-04
-6.620000000000000450e-04
-6.419999999999999925e-04
-6.859999999999999779e-04
-7.150000000000000322e-04
-6.960000000000000041e-04
-6.430000000000000169e-04
-6.279999999999999775e-04
-6.740000000000000114e-04
-7.119999999999999593e-04
-6.939999999999999555e-04
-6.509999999999999945e-04
-6.509999999999999945e-04
-7.150000000000000322e-04
-7.749999999999999728e-04
-7.720000000000000083e-04
-7.399999999999999894e-04
-7.489999999999999913e-04
-8.149999999999999693e-04
-8.739999999999999939e-04
-8.589999999999999546e-04
-8.229999999999999469e-04
-8.220000000000000310e-04
-8.689999999999999808e-04
-9.139999999999999904e-04
-8.989999999999999511e-04
-8.530000000000000256e-04
-8.440000000000000236e-04
-8.930000000000000221e-04
-9.319999999999999942e-04
-9.079999999999999530e-04
-8.580000000000000387e-04
-8.459999999999999638e-04
-8.970000000000000109e-04
-9.290000000000000297e-04
-9.110000000000000259e-04
-8.570000000000000144e-04
-8.459999999999999638e-04
-8.909999999999999734e-04
-9.309999999999999699e-04
-9.089999999999999773e-04
-8.540000000000000499e-04
-8.440000000000000236e-04
-8.829999999999999958e-04
-9.200000000000000278e-04
-9.009999999999999997e-04
-8.469999999999999881e-04
-8.369999999999999619e-04
-8.869999999999999846e-04
-9.200000000000000278e-04
-8.949999999999999623e-04
-8.390000000000000105e-04
-8.279999999999999600e-04
-8.710000000000000294e-04
-9.079999999999999530e-04
-8.919999999999999978e-04
-8.369999999999999619e-04
-8.210000000000000067e-04
-8.700000000000000051e-04
-9.120000000000000502e-04
-8.959999999999999866e-04
-8.490000000000000368e-04
-8.329999999999999731e-04
-8.779999999999999827e-04
-9.150000000000000147e-04
-8.959999999999999866e-04
-8.450000000000000479e-04
-8.360000000000000460e-04
-8.859999999999999603e-04
-9.200000000000000278e-04
-9.020000000000000240e-04
-8.499999999999999526e-04
-8.379999999999999862e-04
-8.869999999999999846e-04
-9.259999999999999568e-04
-9.060000000000000128e-04
-8.520000000000000013e-04
-8.429999999999999993e-04
-8.919999999999999978e-04
-9.330000000000000186e-04
-9.070000000000000371e-04
-8.530000000000000256e-04
-8.419999999999999750e-04
-8.909999999999999734e-04
-9.290000000000000297e-04
-9.039999999999999642e-04
-8.520000000000000013e-04
-8.429999999999999993e-04
-8.890000000000000333e-04
-9.269999999999999811e-04
-9.009999999999999997e-04
-8.490000000000000368e-04
-8.379999999999999862e-04
-8.899999999999999491e-04
-9.290000000000000297e-04
-9.060000000000000128e-04
-8.549999999999999658e-04
-8.369999999999999619e-04
-8.850000000000000444e-04
-9.240000000000000166e-04
-8.999999999999999754e-04
-8.499999999999999526e-04
-8.450000000000000479e-04
-8.909999999999999734e-04
-9.250000000000000409e-04
-9.039999999999999642e-04
-8.509999999999999769e-04
-8.409999999999999507e-04
-8.880000000000000089e-04
-9.229999999999999923e-04
-8.980000000000000352e-04
-8.469999999999999881e-04
-8.289999999999999843e-04
-8.670000000000000406e-04
-8.909999999999999734e-04
-8.520000000000000013e-04
-7.879999999999999635e-04
-7.669999999999999951e-04
-8.130000000000000291e-04
-8.620000000000000275e-04
-8.480000000000000124e-04
-7.860000000000000233e-04
-7.569999999999999689e-04
-7.879999999999999635e-04
-8.220000000000000310e-04
-8.009999999999999542e-04
-7.690000000000000438e-04
-7.720000000000000083e-04
-8.140000000000000534e-04
-8.630000000000000518e-04
-8.549999999999999658e-04
-8.120000000000000048e-04
-8.019999999999999785e-04
-8.559999999999999901e-04
-9.100000000000000016e-04
-9.089999999999999773e-04
-8.630000000000000518e-04
-8.580000000000000387e-04
-9.079999999999999530e-04
-9.470000000000000336e-04
-9.210000000000000521e-04
-8.710000000000000294e-04
-8.679999999999999565e-04
-9.160000000000000390e-04
-9.520000000000000467e-04
-9.269999999999999811e-04
-8.769999999999999584e-04
-8.710000000000000294e-04
-9.129999999999999661e-04
-9.489999999999999738e-04
-9.229999999999999923e-04
-8.679999999999999565e-04
-8.520000000000000013e-04
-9.009999999999999997e-04
-9.709999999999999664e-04
-9.790000000000000525e-04
-9.399999999999999719e-04
-8.970000000000000109e-04
-8.140000000000000534e-04
-5.730000000000000501e-04
-2.039999999999999984e-04
4.600000000000000004e-05
2.210000000000000050e-04
2.999999999999999737e-04
1.210000000000000002e-04
-1.430000000000000064e-04
-3.629999999999999872e-04
-6.120000000000000223e-04
-8.030000000000000028e-04
-8.790000000000000070e-04
-8.450000000000000479e-04
-7.759999999999999971e-04
-7.600000000000000418e-04
-8.149999999999999693e-04
-8.639999999999999677e-04
-8.480000000000000124e-04
-7.950000000000000252e-04
-7.889999999999999878e-04
-8.369999999999999619e-04
-8.760000000000000425e-04
-8.480000000000000124e-04
-7.919999999999999523e-04
-7.829999999999999504e-04
-8.319999999999999488e-04
-8.689999999999999808e-04
-8.390000000000000105e-04
-7.870000000000000476e-04
-7.759999999999999971e-04
-8.260000000000000198e-04
-8.570000000000000144e-04
-8.279999999999999600e-04
-7.709999999999999840e-04
-7.649999999999999465e-04
-8.099999999999999561e-04
-8.469999999999999881e-04
-8.120000000000000048e-04
-7.540000000000000044e-04
-7.439999999999999782e-04
-7.879999999999999635e-04
-8.220000000000000310e-04
-7.940000000000000009e-04
-7.370000000000000249e-04
-7.240000000000000342e-04
-7.690000000000000438e-04
-7.979999999999999897e-04
-7.640000000000000306e-04
-7.089999999999999948e-04
-6.989999999999999686e-04
-7.450000000000000025e-04
-7.749999999999999728e-04
-7.450000000000000025e-04
-6.840000000000000377e-04
-6.710000000000000469e-04
-7.150000000000000322e-04
-7.479999999999999670e-04
-7.140000000000000079e-04
-6.560000000000000076e-04
-6.459999999999999814e-04
-6.909999999999999910e-04
-7.240000000000000342e-04
-6.930000000000000396e-04
-6.409999999999999682e-04
-6.340000000000000149e-04
-6.769999999999999759e-04
-7.039999999999999817e-04
-6.759999999999999516e-04
-6.260000000000000373e-04
-6.239999999999999887e-04
-6.819999999999999890e-04
-7.269999999999999987e-04
-7.169999999999999724e-04
-6.859999999999999779e-04
-6.980000000000000527e-04
-7.659999999999999708e-04
-8.210000000000000067e-04
-8.120000000000000048e-04
-7.759999999999999971e-04
-7.789999999999999616e-04
-8.369999999999999619e-04
-8.829999999999999958e-04
-8.660000000000000163e-04
-8.210000000000000067e-04
-8.210000000000000067e-04
-8.710000000000000294e-04
-9.150000000000000147e-04
-8.840000000000000201e-04
-8.319999999999999488e-04
-8.260000000000000198e-04
-8.769999999999999584e-04
-9.129999999999999661e-04
-8.890000000000000333e-04
-8.409999999999999507e-04
-8.319999999999999488e-04
-8.729999999999999696e-04
-9.089999999999999773e-04
-8.840000000000000201e-04
-8.329999999999999731e-04
-8.249999999999999955e-04
-8.689999999999999808e-04
-8.999999999999999754e-04
-8.720000000000000537e-04
-8.229999999999999469e-04
-8.140000000000000534e-04
-8.610000000000000032e-04
-8.980000000000000352e-04
-8.710000000000000294e-04
-8.180000000000000422e-04
-8.080000000000000160e-04
-8.599999999999999789e-04
-8.999999999999999754e-04
-8.620000000000000275e-04
-8.130000000000000291e-04
-8.090000000000000403e-04
-8.549999999999999658e-04
-8.909999999999999734e-04
-8.670000000000000406e-04
-8.120000000000000048e-04
-8.069999999999999916e-04
-8.530000000000000256e-04
-8.899999999999999491e-04
-8.649999999999999920e-04
-8.149999999999999693e-04
-8.120000000000000048e-04
-8.630000000000000518e-04
-9.009999999999999997e-04
-8.769999999999999584e-04
-8.279999999999999600e-04
-8.229999999999999469e-04
-8.679999999999999565e-04
-8.989999999999999511e-04
-8.750000000000000182e-04
-8.270000000000000441e-04
-8.220000000000000310e-04
-8.710000000000000294e-04
-9.049999999999999885e-04
-8.800000000000000313e-04
-8.300000000000000086e-04
-8.210000000000000067e-04
-8.679999999999999565e-04
-9.060000000000000128e-04
-8.729999999999999696e-04
-8.249999999999999955e-04
-8.210000000000000067e-04
-8.729999999999999696e-04
-9.079999999999999530e-04
-8.760000000000000425e-04
-8.249999999999999955e-04
-8.239999999999999712e-04
-8.729999999999999696e-04
-9.060000000000000128e-04
-8.819999999999999715e-04
-8.300000000000000086e-04
-8.229999999999999469e-04
-8.720000000000000537e-04
-9.060000000000000128e-04
-8.779999999999999827e-04
-8.300000000000000086e-04
-8.229999999999999469e-04
-8.710000000000000294e-04
-8.970000000000000109e-04
-8.750000000000000182e-04
-8.270000000000000441e-04
-8.199999999999999824e-04
-8.670000000000000406e-04
-9.039999999999999642e-04
-8.739999999999999939e-04
-8.189999999999999581e-04
-8.170000000000000179e-04
-8.639999999999999677e-04
-8.959999999999999866e-04
-8.530000000000000256e-04
-7.919999999999999523e-04
-7.699999999999999597e-04
-8.040000000000000271e-04
-8.289999999999999843e-04
-7.990000000000000140e-04
-7.569999999999999689e-04
-7.590000000000000175e-04
-7.979999999999999897e-04
-8.080000000000000160e-04
-7.640000000000000306e-04
-7.050000000000000060e-04
-7.079999999999999705e-04
-7.730000000000000326e-04
-8.180000000000000422e-04
-7.879999999999999635e-04
-7.420000000000000380e-04
-7.569999999999999689e-04
-8.149999999999999693e-04
-8.499999999999999526e-04
-8.289999999999999843e-04
-7.940000000000000009e-04
-8.090000000000000403e-04
-8.649999999999999920e-04
-8.999999999999999754e-04
-8.769999999999999584e-04
-8.270000000000000441e-04
-8.319999999999999488e-04
-8.739999999999999939e-04
-9.110000000000000259e-04
-8.859999999999999603e-04
-8.369999999999999619e-04
-8.339999999999999974e-04
-8.819999999999999715e-04
-9.100000000000000016e-04
-8.779999999999999827e-04
-8.279999999999999600e-04
-8.260000000000000198e-04
-8.739999999999999939e-04
-9.020000000000000240e-04
-8.700000000000000051e-04
-8.520000000000000013e-04
-8.809999999999999472e-04
-9.420000000000000205e-04
-9.690000000000000262e-04
-8.490000000000000368e-04
-5.710000000000000015e-04
-2.090000000000000115e-04
-9.000000000000000228e-06
1.129999999999999955e-04
3.119999999999999944e-04
3.110000000000000243e-04
4.000000000000000327e-05
-2.809999999999999998e-04
-5.800000000000000034e-04
-7.410000000000000137e-04
-7.659999999999999708e-04
-7.619999999999999820e-04
-7.950000000000000252e-04
-8.099999999999999561e-04
-7.839999999999999747e-04
-7.429999999999999539e-04
-7.470000000000000511e-04
-8.030000000000000028e-04
-8.379999999999999862e-04
-8.069999999999999916e-04
-7.560000000000000530e-04
-7.550000000000000287e-04
-8.080000000000000160e-04
-8.360000000000000460e-04
-8.000000000000000383e-04
-7.479999999999999670e-04
-7.470000000000000511e-04
-7.910000000000000364e-04
-8.220000000000000310e-04
-7.910000000000000364e-04
-7.410000000000000137e-04
-7.320000000000000118e-04
-7.770000000000000214e-04
-8.090000000000000403e-04
-7.780000000000000457e-04
-7.259999999999999743e-04
-7.179999999999999967e-04
-7.659999999999999708e-04
-7.919999999999999523e-04
-7.600000000000000418e-04
-7.050000000000000060e-04
-7.010000000000000172e-04
-7.450000000000000025e-04
-7.669999999999999951e-04
-7.330000000000000361e-04
-6.750000000000000357e-04
-6.660000000000000338e-04
-7.119999999999999593e-04
-7.360000000000000006e-04
-6.989999999999999686e-04
-6.419999999999999925e-04
-6.390000000000000280e-04
-6.840000000000000377e-04
-7.039999999999999817e-04
-6.679999999999999740e-04
-6.139999999999999625e-04
-6.099999999999999737e-04
-6.579999999999999478e-04
-6.859999999999999779e-04
-6.499999999999999702e-04
-5.980000000000000072e-04
-5.829999999999999679e-04
-6.319999999999999663e-04
-6.620000000000000450e-04
-6.260000000000000373e-04
-5.770000000000000389e-04
-5.770000000000000389e-04
-6.319999999999999663e-04
-6.669999999999999497e-04
-6.380000000000000037e-04
-5.940000000000000184e-04
-6.109999999999999980e-04
-6.870000000000000022e-04
-7.259999999999999743e-04
-7.119999999999999593e-04
-6.800000000000000488e-04
-7.010000000000000172e-04
-7.649999999999999465e-04
-8.099999999999999561e-04
-7.940000000000000009e-04
-7.550000000000000287e-04
-7.659999999999999708e-04
-8.189999999999999581e-04
-8.559999999999999901e-04
-8.319999999999999488e-04
-7.860000000000000233e-04
-7.820000000000000345e-04
-8.369999999999999619e-04
-8.679999999999999565e-04
-8.379999999999999862e-04
-7.870000000000000476e-04
-7.879999999999999635e-04
-8.369999999999999619e-04
-8.679999999999999565e-04
-8.289999999999999843e-04
-7.799999999999999859e-04
-7.810000000000000102e-04
-8.289999999999999843e-04
-8.589999999999999546e-04
-8.289999999999999843e-04
-7.810000000000000102e-04
-7.770000000000000214e-04
-8.249999999999999955e-04
-8.490000000000000368e-04
-8.189999999999999581e-04
-7.680000000000000195e-04
-7.680000000000000195e-04
-8.159999999999999936e-04
-8.440000000000000236e-04
-8.130000000000000291e-04
-7.649999999999999465e-04
-7.640000000000000306e-04
-8.170000000000000179e-04
-8.520000000000000013e-04
-8.170000000000000179e-04
-7.619999999999999820e-04
-7.680000000000000195e-04
-8.199999999999999824e-04
-8.480000000000000124e-04
-8.159999999999999936e-04
-7.699999999999999597e-04
-7.749999999999999728e-04
-8.289999999999999843e-04
-8.570000000000000144e-04
-8.270000000000000441e-04
-7.839999999999999747e-04
-7.839999999999999747e-04
-8.369999999999999619e-04
-8.670000000000000406e-04
-8.360000000000000460e-04
-7.910000000000000364e-04
-7.960000000000000495e-04
-8.490000000000000368e-04
-8.790000000000000070e-04
-8.450000000000000479e-04
-7.950000000000000252e-04
-7.960000000000000495e-04
-8.469999999999999881e-04
-8.779999999999999827e-04
-8.520000000000000013e-04
-8.040000000000000271e-04
-8.009999999999999542e-04
-8.499999999999999526e-04
-8.809999999999999472e-04
-8.520000000000000013e-04
-8.040000000000000271e-04
-8.000000000000000383e-04
-8.520000000000000013e-04
-8.850000000000000444e-04
-8.459999999999999638e-04
-8.030000000000000028e-04
-8.059999999999999673e-04
-8.559999999999999901e-04
-8.850000000000000444e-04
-8.509999999999999769e-04
-8.019999999999999785e-04
-8.009999999999999542e-04
-8.520000000000000013e-04
-8.829999999999999958e-04
-8.490000000000000368e-04
-8.030000000000000028e-04
-7.990000000000000140e-04
-8.440000000000000236e-04
-8.700000000000000051e-04
-8.429999999999999993e-04
-7.979999999999999897e-04
-7.990000000000000140e-04
-8.540000000000000499e-04
-8.750000000000000182e-04
-8.459999999999999638e-04
-7.969999999999999654e-04
-7.990000000000000140e-04
-8.490000000000000368e-04
-8.769999999999999584e-04
-8.369999999999999619e-04
-7.699999999999999597e-04
-7.590000000000000175e-04
-8.019999999999999785e-04
-8.130000000000000291e-04
-7.699999999999999597e-04
-7.209999999999999612e-04
-7.399999999999999894e-04
-7.919999999999999523e-04
-8.099999999999999561e-04
-7.540000000000000044e-04
-6.930000000000000396e-04
-6.920000000000000153e-04
-7.540000000000000044e-04
-8.050000000000000515e-04
-7.749999999999999728e-04
-7.259999999999999743e-04
-7.399999999999999894e-04
-8.050000000000000515e-04
-8.400000000000000348e-04
-8.080000000000000160e-04
-7.709999999999999840e-04
-7.900000000000000121e-04
-8.599999999999999789e-04
-8.930000000000000221e-04
-8.630000000000000518e-04
-8.159999999999999936e-04
-8.239999999999999712e-04
-8.760000000000000425e-04
-8.999999999999999754e-04
-8.700000000000000051e-04
-8.220000000000000310e-04
-8.239999999999999712e-04
-8.760000000000000425e-04
-8.999999999999999754e-04
-8.670000000000000406e-04
-8.210000000000000067e-04
-8.199999999999999824e-04
-8.779999999999999827e-04
-8.970000000000000109e-04
-8.459999999999999638e-04
-8.159999999999999936e-04
-8.620000000000000275e-04
-9.349999999999999587e-04
-9.669999999999999776e-04
-8.670000000000000406e-04
-6.390000000000000280e-04
-3.049999999999999868e-04
-5.599999999999999916e-05
6.200000000000000270e-05
2.770000000000000110e-04
3.759999999999999779e-04
1.420000000000000092e-04
-1.939999999999999993e-04
-4.809999999999999823e-04
-6.679999999999999740e-04
-7.389999999999999651e-04
-7.630000000000000063e-04
-7.950000000000000252e-04
-8.019999999999999785e-04
-7.669999999999999951e-04
-7.230000000000000098e-04
-7.389999999999999651e-04
-7.990000000000000140e-04
-8.279999999999999600e-04
-7.960000000000000495e-04
-7.399999999999999894e-04
-7.420000000000000380e-04
-7.960000000000000495e-04
-8.279999999999999600e-04
-7.940000000000000009e-04
-7.439999999999999782e-04
-7.439999999999999782e-04
-7.990000000000000140e-04
-8.239999999999999712e-04
-7.879999999999999635e-04
-7.309999999999999875e-04
-7.309999999999999875e-04
-7.810000000000000102e-04
-8.059999999999999673e-04
-7.720000000000000083e-04
-7.269999999999999987e-04
-7.259999999999999743e-04
-7.759999999999999971e-04
-7.979999999999999897e-04
-7.560000000000000530e-04
-7.029999999999999574e-04
-7.050000000000000060e-04
-7.540000000000000044e-04
-7.759999999999999971e-04
-7.380000000000000492e-04
-6.819999999999999890e-04
-6.809999999999999647e-04
-7.320000000000000118e-04
-7.460000000000000268e-04
-7.060000000000000303e-04
-6.549999999999999833e-04
-6.560000000000000076e-04
-7.050000000000000060e-04
-7.249999999999999500e-04
-6.870000000000000022e-04
-6.290000000000000018e-04
-6.229999999999999644e-04
-6.740000000000000114e-04
-6.859999999999999779e-04
-6.480000000000000300e-04
-5.969999999999999829e-04
-5.980000000000000072e-04
-6.509999999999999945e-04
-6.750000000000000357e-04
-6.350000000000000392e-04
-5.860000000000000408e-04
-5.860000000000000408e-04
-6.359999999999999551e-04
-6.599999999999999964e-04
-6.300000000000000261e-04
-5.890000000000000053e-04
-6.049999999999999606e-04
-6.769999999999999759e-04
-7.269999999999999987e-04
-7.200000000000000453e-04
-6.809999999999999647e-04
-6.989999999999999686e-04
-7.640000000000000306e-04
-8.030000000000000028e-04
-7.829999999999999504e-04
-7.479999999999999670e-04
-7.669999999999999951e-04
-8.270000000000000441e-04
-8.580000000000000387e-04
-8.319999999999999488e-04
-7.799999999999999859e-04
-7.810000000000000102e-04
-8.329999999999999731e-04
-8.599999999999999789e-04
-8.260000000000000198e-04
-7.810000000000000102e-04
-7.839999999999999747e-04
-8.360000000000000460e-04
-8.610000000000000032e-04
-8.210000000000000067e-04
-7.780000000000000457e-04
-7.820000000000000345e-04
-8.350000000000000217e-04
-8.589999999999999546e-04
-8.210000000000000067e-04
-7.720000000000000083e-04
-7.759999999999999971e-04
-8.249999999999999955e-04
-8.509999999999999769e-04
-8.099999999999999561e-04
-7.600000000000000418e-04
-7.669999999999999951e-04
-8.239999999999999712e-04
-8.499999999999999526e-04
-8.140000000000000534e-04
-7.640000000000000306e-04
-7.680000000000000195e-04
-8.170000000000000179e-04
-8.369999999999999619e-04
-8.009999999999999542e-04
-7.600000000000000418e-04
-7.690000000000000438e-04
-8.229999999999999469e-04
-8.520000000000000013e-04
-8.159999999999999936e-04
-7.690000000000000438e-04
-7.759999999999999971e-04
-8.260000000000000198e-04
-8.520000000000000013e-04
-8.199999999999999824e-04
-7.759999999999999971e-04
-7.810000000000000102e-04
-8.329999999999999731e-04
-8.540000000000000499e-04
-8.199999999999999824e-04
-7.739999999999999485e-04
-7.789999999999999616e-04
-8.319999999999999488e-04
-8.610000000000000032e-04
-8.279999999999999600e-04
-7.770000000000000214e-04
-7.799999999999999859e-04
-8.390000000000000105e-04
-8.649999999999999920e-04
-8.249999999999999955e-04
-7.829999999999999504e-04
-7.870000000000000476e-04
-8.329999999999999731e-04
-8.610000000000000032e-04
-8.279999999999999600e-04
-7.759999999999999971e-04
-7.860000000000000233e-04
-8.339999999999999974e-04
-8.589999999999999546e-04
-8.249999999999999955e-04
-7.759999999999999971e-04
-7.820000000000000345e-04
-8.339999999999999974e-04
-8.630000000000000518e-04
-8.270000000000000441e-04
-7.789999999999999616e-04
-7.870000000000000476e-04
-8.400000000000000348e-04
-8.639999999999999677e-04
-8.239999999999999712e-04
-7.759999999999999971e-04
-7.870000000000000476e-04
-8.319999999999999488e-04
-8.610000000000000032e-04
-8.180000000000000422e-04
-7.560000000000000530e-04
-7.470000000000000511e-04
-7.870000000000000476e-04
-7.990000000000000140e-04
-7.579999999999999932e-04
-6.989999999999999686e-04
-7.110000000000000434e-04
-7.780000000000000457e-04
-7.960000000000000495e-04
-7.349999999999999763e-04
-6.679999999999999740e-04
-6.639999999999999852e-04
-7.190000000000000210e-04
-7.540000000000000044e-04
-7.320000000000000118e-04
-6.890000000000000508e-04
-7.029999999999999574e-04
-7.709999999999999840e-04
-8.059999999999999673e-04
-7.730000000000000326e-04
-7.349999999999999763e-04
-7.640000000000000306e-04
-8.339999999999999974e-04
-8.660000000000000163e-04
-8.319999999999999488e-04
-7.860000000000000233e-04
-7.979999999999999897e-04
-8.469999999999999881e-04
-8.739999999999999939e-04
-8.409999999999999507e-04
-7.969999999999999654e-04
-8.019999999999999785e-04
-8.509999999999999769e-04
-8.750000000000000182e-04
-8.459999999999999638e-04
-8.009999999999999542e-04
-8.009999999999999542e-04
-8.530000000000000256e-04
-8.779999999999999827e-04
-8.400000000000000348e-04
-7.799999999999999859e-04
-7.900000000000000121e-04
-8.840000000000000201e-04
-9.340000000000000429e-04
-9.120000000000000502e-04
-8.279999999999999600e-04
-6.930000000000000396e-04
-4.530000000000000064e-04
-1.389999999999999905e-04
4.699999999999999724e-05
2.620000000000000258e-04
3.620000000000000171e-04
1.679999999999999907e-04
-1.379999999999999933e-04
-3.519999999999999908e-04
-5.310000000000000050e-04
-7.200000000000000453e-04
-8.390000000000000105e-04
-8.490000000000000368e-04
-7.839999999999999747e-04
-7.169999999999999724e-04
-7.219999999999999855e-04
-7.849999999999999990e-04
-8.109999999999999805e-04
-7.810000000000000102e-04
-7.370000000000000249e-04
-7.450000000000000025e-04
-7.950000000000000252e-04
-8.159999999999999936e-04
-7.759999999999999971e-04
-7.240000000000000342e-04
-7.309999999999999875e-04
-7.739999999999999485e-04
-7.969999999999999654e-04
-7.560000000000000530e-04
-7.060000000000000303e-04
-7.179999999999999967e-04
-7.680000000000000195e-04
-7.879999999999999635e-04
-7.519999999999999558e-04
-7.050000000000000060e-04
-7.069999999999999462e-04
-7.550000000000000287e-04
-7.720000000000000083e-04
-7.290000000000000473e-04
-6.769999999999999759e-04
-6.830000000000000134e-04
-7.290000000000000473e-04
-7.489999999999999913e-04
-7.079999999999999705e-04
-6.589999999999999721e-04
-6.599999999999999964e-04
-7.079999999999999705e-04
-7.269999999999999987e-04
-6.849999999999999535e-04
-6.290000000000000018e-04
-6.290000000000000018e-04
-6.769999999999999759e-04
-6.930000000000000396e-04
-6.480000000000000300e-04
-6.019999999999999961e-04
-6.070000000000000092e-04
-6.480000000000000300e-04
-6.669999999999999497e-04
-6.250000000000000130e-04
-5.739999999999999660e-04
-5.779999999999999548e-04
-6.269999999999999532e-04
